# === DATA DESCRIPTION FILE ======================================================
#
# CAUTION - Investigational device.
# Limited by Federal Law to investigational use.
#
# Dataset name: E:\Dicom\Alex\test_data
#
# CLINICAL TRYOUT             Research image export tool     V4.2
#
# === GENERAL INFORMATION ========================================================
#
.    Patient name                       :   angio
.    Examination name                   :   test_data
.    Protocol name                      :   PCA
.    Examination date/time              :   2018.10.09 / 12:42:25
.    Series Type                        :   Image   MRSERIES
.    Acquisition nr                     :   16
.    Reconstruction nr                  :   1
.    Scan Duration [sec]                :   11.2
.    Max. number of cardiac phases      :   15
.    Max. number of echoes              :   1
.    Max. number of slices/locations    :   1
.    Max. number of dynamics            :   1
.    Max. number of mixes               :   1
.    Patient position                   :   Feet First Supine
.    Preparation direction              :   Anterior-Posterior
.    Technique                          :   T1TFE
.    Scan resolution  (x, y)            :   188  185
.    Scan mode                          :   2D
.    Repetition time [ms]               :   7.995  
.    FOV (ap,fh,rl) [mm]                :   144.667  280.000  6.000
.    Water Fat shift [pixels]           :   1.522
.    Angulation midslice(ap,fh,rl)[degr]:   31.323  -9.945  6.107
.    Off Centre midslice(ap,fh,rl) [mm] :   14.784  -36.169  -50.182
.    Flow compensation <0=no 1=yes> ?   :   1
.    Presaturation     <0=no 1=yes> ?   :   0
.    Phase encoding velocity [cm/sec]   :   50.000000  0.000000  0.000000
.    MTC               <0=no 1=yes> ?   :   0
.    SPIR              <0=no 1=yes> ?   :   0
.    EPI factor        <0,1=no EPI>     :   1
.    Dynamic scan      <0=no 1=yes> ?   :   0
.    Diffusion         <0=no 1=yes> ?   :   0
.    Diffusion echo time [ms]           :   0.0000
.    Max. number of diffusion values    :   1
.    Max. number of gradient orients    :   1
.    Number of label types   <0=no ASL> :   0
#
# === PIXEL VALUES =============================================================
#  PV = pixel value in REC file, FP = floating point value, DV = displayed value on console
#  RS = rescale slope,           RI = rescale intercept,    SS = scale slope
#  DV = PV * RS + RI             FP = DV / (RS * SS)
#
# === IMAGE INFORMATION DEFINITION =============================================
#  The rest of this file contains ONE line per image, this line contains the following information:
#
#  slice number                             (integer)
#  echo number                              (integer)
#  dynamic scan number                      (integer)
#  cardiac phase number                     (integer)
#  image_type_mr                            (integer)
#  scanning sequence                        (integer)
#  index in REC file (in images)            (integer)
#  image pixel size (in bits)               (integer)
#  scan percentage                          (integer)
#  recon resolution (x y)                   (2*integer)
#  rescale intercept                        (float)
#  rescale slope                            (float)
#  scale slope                              (float)
#  window center                            (integer)
#  window width                             (integer)
#  image angulation (ap,fh,rl in degrees )  (3*float)
#  image offcentre (ap,fh,rl in mm )        (3*float)
#  slice thickness (in mm )                 (float)
#  slice gap (in mm )                       (float)
#  image_display_orientation                (integer)
#  slice orientation ( TRA/SAG/COR )        (integer)
#  fmri_status_indication                   (integer)
#  image_type_ed_es  (end diast/end syst)   (integer)
#  pixel spacing (x,y) (in mm)              (2*float)
#  echo_time                                (float)
#  dyn_scan_begin_time                      (float)
#  trigger_time                             (float)
#  diffusion_b_factor                       (float)
#  number of averages                       (integer)
#  image_flip_angle (in degrees)            (float)
#  cardiac frequency   (bpm)                (integer)
#  minimum RR-interval (in ms)              (integer)
#  maximum RR-interval (in ms)              (integer)
#  TURBO factor  <0=no turbo>               (integer)
#  Inversion delay (in ms)                  (float)
#  diffusion b value number    (imagekey!)  (integer)
#  gradient orientation number (imagekey!)  (integer)
#  contrast type                            (string)
#  diffusion anisotropy type                (string)
#  diffusion (ap, fh, rl)                   (3*float)
#  label type (ASL)            (imagekey!)  (integer)
#
# === IMAGE INFORMATION ==========================================================
#  sl ec  dyn ph ty    idx pix scan% rec size                (re)scale              window        angulation              offcentre        thick   gap   info      spacing     echo     dtime   ttime    diff  avg  flip    freq   RR-int  turbo delay b grad cont anis         diffusion       L.ty

  1   1    1  1 3 4     0  16    99  240  240   -50.00000   0.02442 4.09500e+001     0   100  31.32  -9.95   6.11   14.78  -36.17  -50.18  6.000  0.000 0 2 0 2  1.167  1.167   4.81    0.00    11.00    0.00   1   25.00    66  853  954     3   0.0  1   1    1    0   0.000    0.000    0.000  1
  1   1    1  1 0 4     1  16    99  240  240     0.00000   2.57265 1.83243e-002   658  1144  31.32  -9.95   6.11   14.78  -36.17  -50.18  6.000  0.000 0 2 0 2  1.167  1.167   4.81    0.00    11.00    0.00   1   25.00    66  853  954     3   0.0  1   1    1    0   0.000    0.000    0.000  1
  1   1    1  1 0 2     2  16    99  240  240     0.00000   2.57265 1.83243e-002   996  1733  31.32  -9.95   6.11   14.78  -36.17  -50.18  6.000  0.000 0 2 0 2  1.167  1.167   4.81    0.00    11.00    0.00   1   25.00    66  853  954     3   0.0  1   1    1    0   0.000    0.000    0.000  1
  1   1    1  2 0 4     3  16    99  240  240     0.00000   2.57265 1.83243e-002   658  1144  31.32  -9.95   6.11   14.78  -36.17  -50.18  6.000  0.000 0 2 0 2  1.167  1.167   4.81    0.00    59.00    0.00   1   25.00    66  853  954     3   0.0  1   1    1    0   0.000    0.000    0.000  1
  1   1    1  2 3 4     4  16    99  240  240   -50.00000   0.02442 4.09500e+001     0   100  31.32  -9.95   6.11   14.78  -36.17  -50.18  6.000  0.000 0 2 0 2  1.167  1.167   4.81    0.00    59.00    0.00   1   25.00    66  853  954     3   0.0  1   1    1    0   0.000    0.000    0.000  1
  1   1    1  2 0 2     5  16    99  240  240     0.00000   2.57265 1.83243e-002   996  1733  31.32  -9.95   6.11   14.78  -36.17  -50.18  6.000  0.000 0 2 0 2  1.167  1.167   4.81    0.00    59.00    0.00   1   25.00    66  853  954     3   0.0  1   1    1    0   0.000    0.000    0.000  1
  1   1    1  3 0 4     6  16    99  240  240     0.00000   2.57265 1.83243e-002   658  1144  31.32  -9.95   6.11   14.78  -36.17  -50.18  6.000  0.000 0 2 0 2  1.167  1.167   4.81    0.00   107.00    0.00   1   25.00    66  853  954     3   0.0  1   1    1    0   0.000    0.000    0.000  1
  1   1    1  3 0 2     7  16    99  240  240     0.00000   2.57265 1.83243e-002   996  1733  31.32  -9.95   6.11   14.78  -36.17  -50.18  6.000  0.000 0 2 0 2  1.167  1.167   4.81    0.00   107.00    0.00   1   25.00    66  853  954     3   0.0  1   1    1    0   0.000    0.000    0.000  1
  1   1    1  3 3 4     8  16    99  240  240   -50.00000   0.02442 4.09500e+001     0   100  31.32  -9.95   6.11   14.78  -36.17  -50.18  6.000  0.000 0 2 0 2  1.167  1.167   4.81    0.00   107.00    0.00   1   25.00    66  853  954     3   0.0  1   1    1    0   0.000    0.000    0.000  1
  1   1    1  4 3 4     9  16    99  240  240   -50.00000   0.02442 4.09500e+001     0   100  31.32  -9.95   6.11   14.78  -36.17  -50.18  6.000  0.000 0 2 0 2  1.167  1.167   4.81    0.00   154.00    0.00   1   25.00    66  853  954     3   0.0  1   1    1    0   0.000    0.000    0.000  1
  1   1    1  5 3 4    10  16    99  240  240   -50.00000   0.02442 4.09500e+001     0   100  31.32  -9.95   6.11   14.78  -36.17  -50.18  6.000  0.000 0 2 0 2  1.167  1.167   4.81    0.00   202.00    0.00   1   25.00    66  853  954     3   0.0  1   1    1    0   0.000    0.000    0.000  1
  1   1    1  5 0 4    11  16    99  240  240     0.00000   2.57265 1.83243e-002   658  1144  31.32  -9.95   6.11   14.78  -36.17  -50.18  6.000  0.000 0 2 0 2  1.167  1.167   4.81    0.00   202.00    0.00   1   25.00    66  853  954     3   0.0  1   1    1    0   0.000    0.000    0.000  1
  1   1    1  5 0 2    12  16    99  240  240     0.00000   2.57265 1.83243e-002   996  1733  31.32  -9.95   6.11   14.78  -36.17  -50.18  6.000  0.000 0 2 0 2  1.167  1.167   4.81    0.00   202.00    0.00   1   25.00    66  853  954     3   0.0  1   1    1    0   0.000    0.000    0.000  1
  1   1    1  4 0 4    13  16    99  240  240     0.00000   2.57265 1.83243e-002   658  1144  31.32  -9.95   6.11   14.78  -36.17  -50.18  6.000  0.000 0 2 0 2  1.167  1.167   4.81    0.00   154.00    0.00   1   25.00    66  853  954     3   0.0  1   1    1    0   0.000    0.000    0.000  1
  1   1    1  4 0 2    14  16    99  240  240     0.00000   2.57265 1.83243e-002   996  1733  31.32  -9.95   6.11   14.78  -36.17  -50.18  6.000  0.000 0 2 0 2  1.167  1.167   4.81    0.00   154.00    0.00   1   25.00    66  853  954     3   0.0  1   1    1    0   0.000    0.000    0.000  1
  1   1    1  6 3 4    15  16    99  240  240   -50.00000   0.02442 4.09500e+001     0   100  31.32  -9.95   6.11   14.78  -36.17  -50.18  6.000  0.000 0 2 0 2  1.167  1.167   4.81    0.00   250.00    0.00   1   25.00    66  853  954     3   0.0  1   1    1    0   0.000    0.000    0.000  1
  1   1    1  6 0 4    16  16    99  240  240     0.00000   2.57265 1.83243e-002   658  1144  31.32  -9.95   6.11   14.78  -36.17  -50.18  6.000  0.000 0 2 0 2  1.167  1.167   4.81    0.00   250.00    0.00   1   25.00    66  853  954     3   0.0  1   1    1    0   0.000    0.000    0.000  1
  1   1    1  6 0 2    17  16    99  240  240     0.00000   2.57265 1.83243e-002   996  1733  31.32  -9.95   6.11   14.78  -36.17  -50.18  6.000  0.000 0 2 0 2  1.167  1.167   4.81    0.00   250.00    0.00   1   25.00    66  853  954     3   0.0  1   1    1    0   0.000    0.000    0.000  1
  1   1    1  7 3 4    18  16    99  240  240   -50.00000   0.02442 4.09500e+001     0   100  31.32  -9.95   6.11   14.78  -36.17  -50.18  6.000  0.000 0 2 0 2  1.167  1.167   4.81    0.00   298.00    0.00   1   25.00    66  853  954     3   0.0  1   1    1    0   0.000    0.000    0.000  1
  1   1    1  7 0 4    19  16    99  240  240     0.00000   2.57265 1.83243e-002   658  1144  31.32  -9.95   6.11   14.78  -36.17  -50.18  6.000  0.000 0 2 0 2  1.167  1.167   4.81    0.00   298.00    0.00   1   25.00    66  853  954     3   0.0  1   1    1    0   0.000    0.000    0.000  1
  1   1    1  7 0 2    20  16    99  240  240     0.00000   2.57265 1.83243e-002   996  1733  31.32  -9.95   6.11   14.78  -36.17  -50.18  6.000  0.000 0 2 0 2  1.167  1.167   4.81    0.00   298.00    0.00   1   25.00    66  853  954     3   0.0  1   1    1    0   0.000    0.000    0.000  1
  1   1    1  8 3 4    21  16    99  240  240   -50.00000   0.02442 4.09500e+001     0   100  31.32  -9.95   6.11   14.78  -36.17  -50.18  6.000  0.000 0 2 0 2  1.167  1.167   4.81    0.00   346.00    0.00   1   25.00    66  853  954     3   0.0  1   1    1    0   0.000    0.000    0.000  1
  1   1    1  8 0 4    22  16    99  240  240     0.00000   2.57265 1.83243e-002   658  1144  31.32  -9.95   6.11   14.78  -36.17  -50.18  6.000  0.000 0 2 0 2  1.167  1.167   4.81    0.00   346.00    0.00   1   25.00    66  853  954     3   0.0  1   1    1    0   0.000    0.000    0.000  1
  1   1    1  8 0 2    23  16    99  240  240     0.00000   2.57265 1.83243e-002   996  1733  31.32  -9.95   6.11   14.78  -36.17  -50.18  6.000  0.000 0 2 0 2  1.167  1.167   4.81    0.00   346.00    0.00   1   25.00    66  853  954     3   0.0  1   1    1    0   0.000    0.000    0.000  1
  1   1    1  9 3 4    24  16    99  240  240   -50.00000   0.02442 4.09500e+001     0   100  31.32  -9.95   6.11   14.78  -36.17  -50.18  6.000  0.000 0 2 0 2  1.167  1.167   4.81    0.00   394.00    0.00   1   25.00    66  853  954     3   0.0  1   1    1    0   0.000    0.000    0.000  1
  1   1    1  9 0 4    25  16    99  240  240     0.00000   2.57265 1.83243e-002   658  1144  31.32  -9.95   6.11   14.78  -36.17  -50.18  6.000  0.000 0 2 0 2  1.167  1.167   4.81    0.00   394.00    0.00   1   25.00    66  853  954     3   0.0  1   1    1    0   0.000    0.000    0.000  1
  1   1    1  9 0 2    26  16    99  240  240     0.00000   2.57265 1.83243e-002   996  1733  31.32  -9.95   6.11   14.78  -36.17  -50.18  6.000  0.000 0 2 0 2  1.167  1.167   4.81    0.00   394.00    0.00   1   25.00    66  853  954     3   0.0  1   1    1    0   0.000    0.000    0.000  1
  1   1    1 10 3 4    27  16    99  240  240   -50.00000   0.02442 4.09500e+001     0   100  31.32  -9.95   6.11   14.78  -36.17  -50.18  6.000  0.000 0 2 0 2  1.167  1.167   4.81    0.00   442.00    0.00   1   25.00    66  853  954     3   0.0  1   1    1    0   0.000    0.000    0.000  1
  1   1    1 10 0 2    28  16    99  240  240     0.00000   2.57265 1.83243e-002   996  1733  31.32  -9.95   6.11   14.78  -36.17  -50.18  6.000  0.000 0 2 0 2  1.167  1.167   4.81    0.00   442.00    0.00   1   25.00    66  853  954     3   0.0  1   1    1    0   0.000    0.000    0.000  1
  1   1    1 10 0 4    29  16    99  240  240     0.00000   2.57265 1.83243e-002   658  1144  31.32  -9.95   6.11   14.78  -36.17  -50.18  6.000  0.000 0 2 0 2  1.167  1.167   4.81    0.00   442.00    0.00   1   25.00    66  853  954     3   0.0  1   1    1    0   0.000    0.000    0.000  1
  1   1    1 11 3 4    30  16    99  240  240   -50.00000   0.02442 4.09500e+001     0   100  31.32  -9.95   6.11   14.78  -36.17  -50.18  6.000  0.000 0 2 0 2  1.167  1.167   4.81    0.00   490.00    0.00   1   25.00    66  853  954     3   0.0  1   1    1    0   0.000    0.000    0.000  1
  1   1    1 11 0 4    31  16    99  240  240     0.00000   2.57265 1.83243e-002   658  1144  31.32  -9.95   6.11   14.78  -36.17  -50.18  6.000  0.000 0 2 0 2  1.167  1.167   4.81    0.00   490.00    0.00   1   25.00    66  853  954     3   0.0  1   1    1    0   0.000    0.000    0.000  1
  1   1    1 11 0 2    32  16    99  240  240     0.00000   2.57265 1.83243e-002   996  1733  31.32  -9.95   6.11   14.78  -36.17  -50.18  6.000  0.000 0 2 0 2  1.167  1.167   4.81    0.00   490.00    0.00   1   25.00    66  853  954     3   0.0  1   1    1    0   0.000    0.000    0.000  1
  1   1    1 12 3 4    33  16    99  240  240   -50.00000   0.02442 4.09500e+001     0   100  31.32  -9.95   6.11   14.78  -36.17  -50.18  6.000  0.000 0 2 0 2  1.167  1.167   4.81    0.00   538.00    0.00   1   25.00    66  853  954     3   0.0  1   1    1    0   0.000    0.000    0.000  1
  1   1    1 12 0 2    34  16    99  240  240     0.00000   2.57265 1.83243e-002   996  1733  31.32  -9.95   6.11   14.78  -36.17  -50.18  6.000  0.000 0 2 0 2  1.167  1.167   4.81    0.00   538.00    0.00   1   25.00    66  853  954     3   0.0  1   1    1    0   0.000    0.000    0.000  1
  1   1    1 12 0 4    35  16    99  240  240     0.00000   2.57265 1.83243e-002   658  1144  31.32  -9.95   6.11   14.78  -36.17  -50.18  6.000  0.000 0 2 0 2  1.167  1.167   4.81    0.00   538.00    0.00   1   25.00    66  853  954     3   0.0  1   1    1    0   0.000    0.000    0.000  1
  1   1    1 13 3 4    36  16    99  240  240   -50.00000   0.02442 4.09500e+001     0   100  31.32  -9.95   6.11   14.78  -36.17  -50.18  6.000  0.000 0 2 0 2  1.167  1.167   4.81    0.00   586.00    0.00   1   25.00    66  853  954     3   0.0  1   1    1    0   0.000    0.000    0.000  1
  1   1    1 13 0 2    37  16    99  240  240     0.00000   2.57265 1.83243e-002   996  1733  31.32  -9.95   6.11   14.78  -36.17  -50.18  6.000  0.000 0 2 0 2  1.167  1.167   4.81    0.00   586.00    0.00   1   25.00    66  853  954     3   0.0  1   1    1    0   0.000    0.000    0.000  1
  1   1    1 13 0 4    38  16    99  240  240     0.00000   2.57265 1.83243e-002   658  1144  31.32  -9.95   6.11   14.78  -36.17  -50.18  6.000  0.000 0 2 0 2  1.167  1.167   4.81    0.00   586.00    0.00   1   25.00    66  853  954     3   0.0  1   1    1    0   0.000    0.000    0.000  1
  1   1    1 14 3 4    39  16    99  240  240   -50.00000   0.02442 4.09500e+001     0   100  31.32  -9.95   6.11   14.78  -36.17  -50.18  6.000  0.000 0 2 0 2  1.167  1.167   4.81    0.00   634.00    0.00   1   25.00    66  853  954     3   0.0  1   1    1    0   0.000    0.000    0.000  1
  1   1    1 14 0 2    40  16    99  240  240     0.00000   2.57265 1.83243e-002   996  1733  31.32  -9.95   6.11   14.78  -36.17  -50.18  6.000  0.000 0 2 0 2  1.167  1.167   4.81    0.00   634.00    0.00   1   25.00    66  853  954     3   0.0  1   1    1    0   0.000    0.000    0.000  1
  1   1    1 14 0 4    41  16    99  240  240     0.00000   2.57265 1.83243e-002   658  1144  31.32  -9.95   6.11   14.78  -36.17  -50.18  6.000  0.000 0 2 0 2  1.167  1.167   4.81    0.00   634.00    0.00   1   25.00    66  853  954     3   0.0  1   1    1    0   0.000    0.000    0.000  1
  1   1    1 15 3 4    42  16    99  240  240   -50.00000   0.02442 4.09500e+001     0   100  31.32  -9.95   6.11   14.78  -36.17  -50.18  6.000  0.000 0 2 0 2  1.167  1.167   4.81    0.00   682.00    0.00   1   25.00    66  853  954     3   0.0  1   1    1    0   0.000    0.000    0.000  1
  1   1    1 15 0 4    43  16    99  240  240     0.00000   2.57265 1.83243e-002   658  1144  31.32  -9.95   6.11   14.78  -36.17  -50.18  6.000  0.000 0 2 0 2  1.167  1.167   4.81    0.00   682.00    0.00   1   25.00    66  853  954     3   0.0  1   1    1    0   0.000    0.000    0.000  1
  1   1    1 15 0 2    44  16    99  240  240     0.00000   2.57265 1.83243e-002   996  1733  31.32  -9.95   6.11   14.78  -36.17  -50.18  6.000  0.000 0 2 0 2  1.167  1.167   4.81    0.00   682.00    0.00   1   25.00    66  853  954     3   0.0  1   1    1    0   0.000    0.000    0.000  1

# === END OF DATA DESCRIPTION FILE ===============================================
