# === DATA DESCRIPTION FILE ======================================================
#
# CAUTION - Investigational device.
# Limited by Federal Law to investigational use.
#
# Dataset name: E:\Dicom\Alex\test_data
#
# CLINICAL TRYOUT             Research image export tool     V4.2
#
# === GENERAL INFORMATION ========================================================
#
.    Patient name                       :   asl
.    Examination name                   :   test_data
.    Protocol name                      :   asl
.    Examination date/time              :   2018.10.09 / 12:42:25
.    Series Type                        :   Image   MRSERIES
.    Acquisition nr                     :   21
.    Reconstruction nr                  :   2
.    Scan Duration [sec]                :   195
.    Max. number of cardiac phases      :   1
.    Max. number of echoes              :   1
.    Max. number of slices/locations    :   1
.    Max. number of dynamics            :   24
.    Max. number of mixes               :   1
.    Patient position                   :   Feet First Supine
.    Preparation direction              :   Anterior-Posterior
.    Technique                          :   TFEPI
.    Scan resolution  (x, y)            :   72  45
.    Scan mode                          :   MS
.    Repetition time [ms]               :   3000.000  
.    FOV (ap,fh,rl) [mm]                :   244.000  244.000  5.000
.    Water Fat shift [pixels]           :   3.144
.    Angulation midslice(ap,fh,rl)[degr]:   31.323  -9.945  6.107
.    Off Centre midslice(ap,fh,rl) [mm] :   14.784  -36.169  -50.182
.    Flow compensation <0=no 1=yes> ?   :   0
.    Presaturation     <0=no 1=yes> ?   :   0
.    Phase encoding velocity [cm/sec]   :   0.000000  0.000000  0.000000
.    MTC               <0=no 1=yes> ?   :   0
.    SPIR              <0=no 1=yes> ?   :   0
.    EPI factor        <0,1=no EPI>     :   15
.    Dynamic scan      <0=no 1=yes> ?   :   1
.    Diffusion         <0=no 1=yes> ?   :   0
.    Diffusion echo time [ms]           :   0.0000
.    Max. number of diffusion values    :   1
.    Max. number of gradient orients    :   1
.    Number of label types   <0=no ASL> :   2
#
# === PIXEL VALUES =============================================================
#  PV = pixel value in REC file, FP = floating point value, DV = displayed value on console
#  RS = rescale slope,           RI = rescale intercept,    SS = scale slope
#  DV = PV * RS + RI             FP = DV / (RS * SS)
#
# === IMAGE INFORMATION DEFINITION =============================================
#  The rest of this file contains ONE line per image, this line contains the following information:
#
#  slice number                             (integer)
#  echo number                              (integer)
#  dynamic scan number                      (integer)
#  cardiac phase number                     (integer)
#  image_type_mr                            (integer)
#  scanning sequence                        (integer)
#  index in REC file (in images)            (integer)
#  image pixel size (in bits)               (integer)
#  scan percentage                          (integer)
#  recon resolution (x y)                   (2*integer)
#  rescale intercept                        (float)
#  rescale slope                            (float)
#  scale slope                              (float)
#  window center                            (integer)
#  window width                             (integer)
#  image angulation (ap,fh,rl in degrees )  (3*float)
#  image offcentre (ap,fh,rl in mm )        (3*float)
#  slice thickness (in mm )                 (float)
#  slice gap (in mm )                       (float)
#  image_display_orientation                (integer)
#  slice orientation ( TRA/SAG/COR )        (integer)
#  fmri_status_indication                   (integer)
#  image_type_ed_es  (end diast/end syst)   (integer)
#  pixel spacing (x,y) (in mm)              (2*float)
#  echo_time                                (float)
#  dyn_scan_begin_time                      (float)
#  trigger_time                             (float)
#  diffusion_b_factor                       (float)
#  number of averages                       (integer)
#  image_flip_angle (in degrees)            (float)
#  cardiac frequency   (bpm)                (integer)
#  minimum RR-interval (in ms)              (integer)
#  maximum RR-interval (in ms)              (integer)
#  TURBO factor  <0=no turbo>               (integer)
#  Inversion delay (in ms)                  (float)
#  diffusion b value number    (imagekey!)  (integer)
#  gradient orientation number (imagekey!)  (integer)
#  contrast type                            (string)
#  diffusion anisotropy type                (string)
#  diffusion (ap, fh, rl)                   (3*float)
#  label type (ASL)            (imagekey!)  (integer)
#
# === IMAGE INFORMATION ==========================================================
#  sl ec  dyn ph ty    idx pix scan% rec size                (re)scale              window        angulation              offcentre        thick   gap   info      spacing     echo     dtime   ttime    diff  avg  flip    freq   RR-int  turbo delay b grad cont anis         diffusion       L.ty

  1   1    1  1 0 2     0  16    98   96   96     0.00000   1.82613 5.45102e-003  1070  1860  31.32  -9.95   6.11   14.78  -36.17  -50.18  5.000  0.000 0 2 0 2  2.542  2.542   3.00    0.00     0.00    0.00   1   90.00     0    0    0    15   0.0  1   1    3    0   0.000    0.000    0.000  1
  1   1    1  1 0 2     1  16    98   96   96     0.00000   1.82613 5.45102e-003   617  1072  31.32  -9.95   6.11   14.78  -36.17  -50.18  5.000  0.000 0 2 0 2  2.542  2.542   3.00    0.00     0.00    0.00   1   90.00     0    0    0    15   0.0  1   1    3    0   0.000    0.000    0.000  2
  1   1    2  1 0 2     2  16    98   96   96     0.00000   1.82613 5.45102e-003  1092  1899  31.32  -9.95   6.11   14.78  -36.17  -50.18  5.000  0.000 0 2 0 2  2.542  2.542   3.00    9.81     0.00    0.00   1   90.00     0    0    0    15   0.0  1   1    3    0   0.000    0.000    0.000  1
  1   1    2  1 0 2     3  16    98   96   96     0.00000   1.82613 5.45102e-003   608  1057  31.32  -9.95   6.11   14.78  -36.17  -50.18  5.000  0.000 0 2 0 2  2.542  2.542   3.00    9.81     0.00    0.00   1   90.00     0    0    0    15   0.0  1   1    3    0   0.000    0.000    0.000  2
  1   1    3  1 0 2     4  16    98   96   96     0.00000   1.82613 5.45102e-003   996  1731  31.32  -9.95   6.11   14.78  -36.17  -50.18  5.000  0.000 0 2 0 2  2.542  2.542   3.00   19.92     0.00    0.00   1   90.00     0    0    0    15   0.0  1   1    3    0   0.000    0.000    0.000  1
  1   1    3  1 0 2     5  16    98   96   96     0.00000   1.82613 5.45102e-003   614  1067  31.32  -9.95   6.11   14.78  -36.17  -50.18  5.000  0.000 0 2 0 2  2.542  2.542   3.00   19.92     0.00    0.00   1   90.00     0    0    0    15   0.0  1   1    3    0   0.000    0.000    0.000  2
  1   1    4  1 0 2     6  16    98   96   96     0.00000   1.82613 5.45102e-003   957  1664  31.32  -9.95   6.11   14.78  -36.17  -50.18  5.000  0.000 0 2 0 2  2.542  2.542   3.00   29.83     0.00    0.00   1   90.00     0    0    0    15   0.0  1   1    3    0   0.000    0.000    0.000  1
  1   1    4  1 0 2     7  16    98   96   96     0.00000   1.82613 5.45102e-003   643  1117  31.32  -9.95   6.11   14.78  -36.17  -50.18  5.000  0.000 0 2 0 2  2.542  2.542   3.00   29.83     0.00    0.00   1   90.00     0    0    0    15   0.0  1   1    3    0   0.000    0.000    0.000  2
  1   1    5  1 0 2     8  16    98   96   96     0.00000   1.82613 5.45102e-003   991  1723  31.32  -9.95   6.11   14.78  -36.17  -50.18  5.000  0.000 0 2 0 2  2.542  2.542   3.00   39.54     0.00    0.00   1   90.00     0    0    0    15   0.0  1   1    3    0   0.000    0.000    0.000  1
  1   1    5  1 0 2     9  16    98   96   96     0.00000   1.82613 5.45102e-003   640  1112  31.32  -9.95   6.11   14.78  -36.17  -50.18  5.000  0.000 0 2 0 2  2.542  2.542   3.00   39.54     0.00    0.00   1   90.00     0    0    0    15   0.0  1   1    3    0   0.000    0.000    0.000  2
  1   1    6  1 0 2    10  16    98   96   96     0.00000   1.82613 5.45102e-003   965  1678  31.32  -9.95   6.11   14.78  -36.17  -50.18  5.000  0.000 0 2 0 2  2.542  2.542   3.00   49.25     0.00    0.00   1   90.00     0    0    0    15   0.0  1   1    3    0   0.000    0.000    0.000  1
  1   1    6  1 0 2    11  16    98   96   96     0.00000   1.82613 5.45102e-003   620  1078  31.32  -9.95   6.11   14.78  -36.17  -50.18  5.000  0.000 0 2 0 2  2.542  2.542   3.00   49.25     0.00    0.00   1   90.00     0    0    0    15   0.0  1   1    3    0   0.000    0.000    0.000  2
  1   1    7  1 0 2    12  16    98   96   96     0.00000   1.82613 5.45102e-003   728  1265  31.32  -9.95   6.11   14.78  -36.17  -50.18  5.000  0.000 0 2 0 2  2.542  2.542   3.00   59.40     0.00    0.00   1   90.00     0    0    0    15   0.0  1   1    3    0   0.000    0.000    0.000  1
  1   1    7  1 0 2    13  16    98   96   96     0.00000   1.82613 5.45102e-003   519   902  31.32  -9.95   6.11   14.78  -36.17  -50.18  5.000  0.000 0 2 0 2  2.542  2.542   3.00   59.40     0.00    0.00   1   90.00     0    0    0    15   0.0  1   1    3    0   0.000    0.000    0.000  2
  1   1    8  1 0 2    14  16    98   96   96     0.00000   1.82613 5.45102e-003   651  1132  31.32  -9.95   6.11   14.78  -36.17  -50.18  5.000  0.000 0 2 0 2  2.542  2.542   3.00   69.89     0.00    0.00   1   90.00     0    0    0    15   0.0  1   1    3    0   0.000    0.000    0.000  1
  1   1    8  1 0 2    15  16    98   96   96     0.00000   1.82613 5.45102e-003   523   909  31.32  -9.95   6.11   14.78  -36.17  -50.18  5.000  0.000 0 2 0 2  2.542  2.542   3.00   69.89     0.00    0.00   1   90.00     0    0    0    15   0.0  1   1    3    0   0.000    0.000    0.000  2
  1   1    9  1 0 2    16  16    98   96   96     0.00000   1.82613 5.45102e-003   694  1206  31.32  -9.95   6.11   14.78  -36.17  -50.18  5.000  0.000 0 2 0 2  2.542  2.542   3.00   80.47     0.00    0.00   1   90.00     0    0    0    15   0.0  1   1    3    0   0.000    0.000    0.000  1
  1   1    9  1 0 2    17  16    98   96   96     0.00000   1.82613 5.45102e-003   530   922  31.32  -9.95   6.11   14.78  -36.17  -50.18  5.000  0.000 0 2 0 2  2.542  2.542   3.00   80.47     0.00    0.00   1   90.00     0    0    0    15   0.0  1   1    3    0   0.000    0.000    0.000  2
  1   1   10  1 0 2    18  16    98   96   96     0.00000   1.82613 5.45102e-003   738  1283  31.32  -9.95   6.11   14.78  -36.17  -50.18  5.000  0.000 0 2 0 2  2.542  2.542   3.00   90.36     0.00    0.00   1   90.00     0    0    0    15   0.0  1   1    3    0   0.000    0.000    0.000  1
  1   1   10  1 0 2    19  16    98   96   96     0.00000   1.82613 5.45102e-003   536   931  31.32  -9.95   6.11   14.78  -36.17  -50.18  5.000  0.000 0 2 0 2  2.542  2.542   3.00   90.36     0.00    0.00   1   90.00     0    0    0    15   0.0  1   1    3    0   0.000    0.000    0.000  2
  1   1   11  1 0 2    20  16    98   96   96     0.00000   1.82613 5.45102e-003   740  1286  31.32  -9.95   6.11   14.78  -36.17  -50.18  5.000  0.000 0 2 0 2  2.542  2.542   3.00  100.45     0.00    0.00   1   90.00     0    0    0    15   0.0  1   1    3    0   0.000    0.000    0.000  1
  1   1   11  1 0 2    21  16    98   96   96     0.00000   1.82613 5.45102e-003   521   905  31.32  -9.95   6.11   14.78  -36.17  -50.18  5.000  0.000 0 2 0 2  2.542  2.542   3.00  100.45     0.00    0.00   1   90.00     0    0    0    15   0.0  1   1    3    0   0.000    0.000    0.000  2
  1   1   12  1 0 2    22  16    98   96   96     0.00000   1.82613 5.45102e-003   706  1228  31.32  -9.95   6.11   14.78  -36.17  -50.18  5.000  0.000 0 2 0 2  2.542  2.542   3.00  110.54     0.00    0.00   1   90.00     0    0    0    15   0.0  1   1    3    0   0.000    0.000    0.000  1
  1   1   12  1 0 2    23  16    98   96   96     0.00000   1.82613 5.45102e-003   522   907  31.32  -9.95   6.11   14.78  -36.17  -50.18  5.000  0.000 0 2 0 2  2.542  2.542   3.00  110.54     0.00    0.00   1   90.00     0    0    0    15   0.0  1   1    3    0   0.000    0.000    0.000  2
  1   1   13  1 0 2    24  16    98   96   96     0.00000   1.82613 5.45102e-003   610  1060  31.32  -9.95   6.11   14.78  -36.17  -50.18  5.000  0.000 0 2 0 2  2.542  2.542   3.00  120.07     0.00    0.00   1   90.00     0    0    0    15   0.0  1   1    3    0   0.000    0.000    0.000  1
  1   1   13  1 0 2    25  16    98   96   96     0.00000   1.82613 5.45102e-003   427   742  31.32  -9.95   6.11   14.78  -36.17  -50.18  5.000  0.000 0 2 0 2  2.542  2.542   3.00  120.07     0.00    0.00   1   90.00     0    0    0    15   0.0  1   1    3    0   0.000    0.000    0.000  2
  1   1   14  1 0 2    26  16    98   96   96     0.00000   1.82613 5.45102e-003   524   911  31.32  -9.95   6.11   14.78  -36.17  -50.18  5.000  0.000 0 2 0 2  2.542  2.542   3.00  130.94     0.00    0.00   1   90.00     0    0    0    15   0.0  1   1    3    0   0.000    0.000    0.000  1
  1   1   14  1 0 2    27  16    98   96   96     0.00000   1.82613 5.45102e-003   423   736  31.32  -9.95   6.11   14.78  -36.17  -50.18  5.000  0.000 0 2 0 2  2.542  2.542   3.00  130.94     0.00    0.00   1   90.00     0    0    0    15   0.0  1   1    3    0   0.000    0.000    0.000  2
  1   1   15  1 0 2    28  16    98   96   96     0.00000   1.82613 5.45102e-003   535   930  31.32  -9.95   6.11   14.78  -36.17  -50.18  5.000  0.000 0 2 0 2  2.542  2.542   3.00  141.41     0.00    0.00   1   90.00     0    0    0    15   0.0  1   1    3    0   0.000    0.000    0.000  1
  1   1   15  1 0 2    29  16    98   96   96     0.00000   1.82613 5.45102e-003   431   750  31.32  -9.95   6.11   14.78  -36.17  -50.18  5.000  0.000 0 2 0 2  2.542  2.542   3.00  141.41     0.00    0.00   1   90.00     0    0    0    15   0.0  1   1    3    0   0.000    0.000    0.000  2
  1   1   16  1 0 2    30  16    98   96   96     0.00000   1.82613 5.45102e-003   567   986  31.32  -9.95   6.11   14.78  -36.17  -50.18  5.000  0.000 0 2 0 2  2.542  2.542   3.00  152.48     0.00    0.00   1   90.00     0    0    0    15   0.0  1   1    3    0   0.000    0.000    0.000  1
  1   1   16  1 0 2    31  16    98   96   96     0.00000   1.82613 5.45102e-003   421   732  31.32  -9.95   6.11   14.78  -36.17  -50.18  5.000  0.000 0 2 0 2  2.542  2.542   3.00  152.48     0.00    0.00   1   90.00     0    0    0    15   0.0  1   1    3    0   0.000    0.000    0.000  2
  1   1   17  1 0 2    32  16    98   96   96     0.00000   1.82613 5.45102e-003   611  1063  31.32  -9.95   6.11   14.78  -36.17  -50.18  5.000  0.000 0 2 0 2  2.542  2.542   3.00  163.44     0.00    0.00   1   90.00     0    0    0    15   0.0  1   1    3    0   0.000    0.000    0.000  1
  1   1   17  1 0 2    33  16    98   96   96     0.00000   1.82613 5.45102e-003   415   722  31.32  -9.95   6.11   14.78  -36.17  -50.18  5.000  0.000 0 2 0 2  2.542  2.542   3.00  163.44     0.00    0.00   1   90.00     0    0    0    15   0.0  1   1    3    0   0.000    0.000    0.000  2
  1   1   18  1 0 2    34  16    98   96   96     0.00000   1.82613 5.45102e-003   562   977  31.32  -9.95   6.11   14.78  -36.17  -50.18  5.000  0.000 0 2 0 2  2.542  2.542   3.00  174.81     0.00    0.00   1   90.00     0    0    0    15   0.0  1   1    3    0   0.000    0.000    0.000  1
  1   1   18  1 0 2    35  16    98   96   96     0.00000   1.82613 5.45102e-003   424   736  31.32  -9.95   6.11   14.78  -36.17  -50.18  5.000  0.000 0 2 0 2  2.542  2.542   3.00  174.81     0.00    0.00   1   90.00     0    0    0    15   0.0  1   1    3    0   0.000    0.000    0.000  2
  1   1   19  1 0 2    36  16    98   96   96     0.00000   1.82613 5.45102e-003   311   540  31.32  -9.95   6.11   14.78  -36.17  -50.18  5.000  0.000 0 2 0 2  2.542  2.542   3.00  186.46     0.00    0.00   1   90.00     0    0    0    15   0.0  1   1    3    0   0.000    0.000    0.000  1
  1   1   19  1 0 2    37  16    98   96   96     0.00000   1.82613 5.45102e-003   284   494  31.32  -9.95   6.11   14.78  -36.17  -50.18  5.000  0.000 0 2 0 2  2.542  2.542   3.00  186.46     0.00    0.00   1   90.00     0    0    0    15   0.0  1   1    3    0   0.000    0.000    0.000  2
  1   1   20  1 0 2    38  16    98   96   96     0.00000   1.82613 5.45102e-003   325   564  31.32  -9.95   6.11   14.78  -36.17  -50.18  5.000  0.000 0 2 0 2  2.542  2.542   3.00  198.09     0.00    0.00   1   90.00     0    0    0    15   0.0  1   1    3    0   0.000    0.000    0.000  1
  1   1   20  1 0 2    39  16    98   96   96     0.00000   1.82613 5.45102e-003   287   499  31.32  -9.95   6.11   14.78  -36.17  -50.18  5.000  0.000 0 2 0 2  2.542  2.542   3.00  198.09     0.00    0.00   1   90.00     0    0    0    15   0.0  1   1    3    0   0.000    0.000    0.000  2
  1   1   21  1 0 2    40  16    98   96   96     0.00000   1.82613 5.45102e-003   330   573  31.32  -9.95   6.11   14.78  -36.17  -50.18  5.000  0.000 0 2 0 2  2.542  2.542   3.00  208.52     0.00    0.00   1   90.00     0    0    0    15   0.0  1   1    3    0   0.000    0.000    0.000  1
  1   1   21  1 0 2    41  16    98   96   96     0.00000   1.82613 5.45102e-003   293   510  31.32  -9.95   6.11   14.78  -36.17  -50.18  5.000  0.000 0 2 0 2  2.542  2.542   3.00  208.52     0.00    0.00   1   90.00     0    0    0    15   0.0  1   1    3    0   0.000    0.000    0.000  2
  1   1   22  1 0 2    42  16    98   96   96     0.00000   1.82613 5.45102e-003   337   586  31.32  -9.95   6.11   14.78  -36.17  -50.18  5.000  0.000 0 2 0 2  2.542  2.542   3.00  218.75     0.00    0.00   1   90.00     0    0    0    15   0.0  1   1    3    0   0.000    0.000    0.000  1
  1   1   22  1 0 2    43  16    98   96   96     0.00000   1.82613 5.45102e-003   288   500  31.32  -9.95   6.11   14.78  -36.17  -50.18  5.000  0.000 0 2 0 2  2.542  2.542   3.00  218.75     0.00    0.00   1   90.00     0    0    0    15   0.0  1   1    3    0   0.000    0.000    0.000  2
  1   1   23  1 0 2    44  16    98   96   96     0.00000   1.82613 5.45102e-003   349   607  31.32  -9.95   6.11   14.78  -36.17  -50.18  5.000  0.000 0 2 0 2  2.542  2.542   3.00  229.07     0.00    0.00   1   90.00     0    0    0    15   0.0  1   1    3    0   0.000    0.000    0.000  1
  1   1   23  1 0 2    45  16    98   96   96     0.00000   1.82613 5.45102e-003   294   510  31.32  -9.95   6.11   14.78  -36.17  -50.18  5.000  0.000 0 2 0 2  2.542  2.542   3.00  229.07     0.00    0.00   1   90.00     0    0    0    15   0.0  1   1    3    0   0.000    0.000    0.000  2
  1   1   24  1 0 2    46  16    98   96   96     0.00000   1.82613 5.45102e-003   318   553  31.32  -9.95   6.11   14.78  -36.17  -50.18  5.000  0.000 0 2 0 2  2.542  2.542   3.00  239.40     0.00    0.00   1   90.00     0    0    0    15   0.0  1   1    3    0   0.000    0.000    0.000  1
  1   1   24  1 0 2    47  16    98   96   96     0.00000   1.82613 5.45102e-003   287   499  31.32  -9.95   6.11   14.78  -36.17  -50.18  5.000  0.000 0 2 0 2  2.542  2.542   3.00  239.40     0.00    0.00   1   90.00     0    0    0    15   0.0  1   1    3    0   0.000    0.000    0.000  2

# === END OF DATA DESCRIPTION FILE ===============================================
