# === DATA DESCRIPTION FILE ======================================================
#
# CAUTION - Investigational device.
# Limited by Federal Law to investigational use.
#
# Dataset name: E:\Dicom\Alex\\test_data
#
# CLINICAL TRYOUT             Research image export tool     V4.2
#
# === GENERAL INFORMATION ========================================================
#
.    Patient name                       :   diffusion
.    Examination name                   :   test_data
.    Protocol name                      :   DTI
.    Examination date/time              :   2018.08.08 / 13:58:23
.    Series Type                        :   Image   MRSERIES
.    Acquisition nr                     :   6
.    Reconstruction nr                  :   1
.    Scan Duration [sec]                :   36.6
.    Max. number of cardiac phases      :   1
.    Max. number of echoes              :   1
.    Max. number of slices/locations    :   12
.    Max. number of dynamics            :   1
.    Max. number of mixes               :   1
.    Patient position                   :   Head First Supine
.    Preparation direction              :   Right-Left
.    Technique                          :   DwiSE
.    Scan resolution  (x, y)            :   84  81
.    Scan mode                          :   MS
.    Repetition time [ms]               :   2500.000  
.    FOV (ap,fh,rl) [mm]                :   26.400  180.000  180.000
.    Water Fat shift [pixels]           :   20.677
.    Angulation midslice(ap,fh,rl)[degr]:   0.000  0.000  0.000
.    Off Centre midslice(ap,fh,rl) [mm] :   -25.070  28.842  3.391
.    Flow compensation <0=no 1=yes> ?   :   0
.    Presaturation     <0=no 1=yes> ?   :   0
.    Phase encoding velocity [cm/sec]   :   0.000000  0.000000  0.000000
.    MTC               <0=no 1=yes> ?   :   0
.    SPIR              <0=no 1=yes> ?   :   1
.    EPI factor        <0,1=no EPI>     :   63
.    Dynamic scan      <0=no 1=yes> ?   :   0
.    Diffusion         <0=no 1=yes> ?   :   1
.    Diffusion echo time [ms]           :   0.0000
.    Max. number of diffusion values    :   2
.    Max. number of gradient orients    :   7
.    Number of label types   <0=no ASL> :   0
#
# === PIXEL VALUES =============================================================
#  PV = pixel value in REC file, FP = floating point value, DV = displayed value on console
#  RS = rescale slope,           RI = rescale intercept,    SS = scale slope
#  DV = PV * RS + RI             FP = DV / (RS * SS)
#
# === IMAGE INFORMATION DEFINITION =============================================
#  The rest of this file contains ONE line per image, this line contains the following information:
#
#  slice number                             (integer)
#  echo number                              (integer)
#  dynamic scan number                      (integer)
#  cardiac phase number                     (integer)
#  image_type_mr                            (integer)
#  scanning sequence                        (integer)
#  index in REC file (in images)            (integer)
#  image pixel size (in bits)               (integer)
#  scan percentage                          (integer)
#  recon resolution (x y)                   (2*integer)
#  rescale intercept                        (float)
#  rescale slope                            (float)
#  scale slope                              (float)
#  window center                            (integer)
#  window width                             (integer)
#  image angulation (ap,fh,rl in degrees )  (3*float)
#  image offcentre (ap,fh,rl in mm )        (3*float)
#  slice thickness (in mm )                 (float)
#  slice gap (in mm )                       (float)
#  image_display_orientation                (integer)
#  slice orientation ( TRA/SAG/COR )        (integer)
#  fmri_status_indication                   (integer)
#  image_type_ed_es  (end diast/end syst)   (integer)
#  pixel spacing (x,y) (in mm)              (2*float)
#  echo_time                                (float)
#  dyn_scan_begin_time                      (float)
#  trigger_time                             (float)
#  diffusion_b_factor                       (float)
#  number of averages                       (integer)
#  image_flip_angle (in degrees)            (float)
#  cardiac frequency   (bpm)                (integer)
#  minimum RR-interval (in ms)              (integer)
#  maximum RR-interval (in ms)              (integer)
#  TURBO factor  <0=no turbo>               (integer)
#  Inversion delay (in ms)                  (float)
#  diffusion b value number    (imagekey!)  (integer)
#  gradient orientation number (imagekey!)  (integer)
#  contrast type                            (string)
#  diffusion anisotropy type                (string)
#  diffusion (ap, fh, rl)                   (3*float)
#  label type (ASL)            (imagekey!)  (integer)
#
# === IMAGE INFORMATION ==========================================================
#  sl ec  dyn ph ty    idx pix scan% rec size                (re)scale              window        angulation              offcentre        thick   gap   info      spacing     echo     dtime   ttime    diff  avg  flip    freq   RR-int  turbo delay b grad cont anis         diffusion       L.ty

 11   1    1  1 0 1     0  16    97  112  112     0.00000   1.36435 2.63923e-002  1196  1607   0.00  -0.00  -0.00  -15.17   28.84    3.39  2.200  0.000 0 3 0 2  1.607  1.607  78.64    0.00     0.00    0.00   1   90.00     0    0    0    63   0.0  1   7    0    0   0.000    0.000    0.000  1
  9   1    1  1 0 1     1  16    97  112  112     0.00000   1.36435 2.63923e-002  1181  1513   0.00  -0.00  -0.00  -19.57   28.84    3.39  2.200  0.000 0 3 0 2  1.607  1.607  78.64    0.00     0.00    0.00   1   90.00     0    0    0    63   0.0  1   7    0    0   0.000    0.000    0.000  1
  7   1    1  1 0 1     2  16    97  112  112     0.00000   1.36435 2.63923e-002  1215  1543   0.00  -0.00  -0.00  -23.97   28.84    3.39  2.200  0.000 0 3 0 2  1.607  1.607  78.64    0.00     0.00    0.00   1   90.00     0    0    0    63   0.0  1   7    0    0   0.000    0.000    0.000  1
  2   1    1  1 0 1     3  16    97  112  112     0.00000   1.36435 2.63923e-002  1298  1765   0.00  -0.00  -0.00  -34.97   28.84    3.39  2.200  0.000 0 3 0 2  1.607  1.607  78.64    0.00     0.00    0.00   1   90.00     0    0    0    63   0.0  1   7    0    0   0.000    0.000    0.000  1
  5   1    1  1 0 1     4  16    97  112  112     0.00000   1.36435 2.63923e-002  1234  1567   0.00  -0.00  -0.00  -28.37   28.84    3.39  2.200  0.000 0 3 0 2  1.607  1.607  78.64    0.00     0.00    0.00   1   90.00     0    0    0    63   0.0  1   7    0    0   0.000    0.000    0.000  1
  1   1    1  1 0 1     5  16    97  112  112     0.00000   1.36435 2.63923e-002  1734  2178   0.00  -0.00  -0.00  -37.17   28.84    3.39  2.200  0.000 0 3 0 2  1.607  1.607  78.64    0.00     0.00    0.00   1   90.00     0    0    0    63   0.0  1   7    0    0   0.000    0.000    0.000  1
  3   1    1  1 0 1     6  16    97  112  112     0.00000   1.36435 2.63923e-002  1308  1712   0.00  -0.00  -0.00  -32.77   28.84    3.39  2.200  0.000 0 3 0 2  1.607  1.607  78.64    0.00     0.00    0.00   1   90.00     0    0    0    63   0.0  1   7    0    0   0.000    0.000    0.000  1
  4   1    1  1 0 1     7  16    97  112  112     0.00000   1.36435 2.63923e-002  1180  1530   0.00  -0.00  -0.00  -30.57   28.84    3.39  2.200  0.000 0 3 0 2  1.607  1.607  78.64    0.00     0.00    0.00   1   90.00     0    0    0    63   0.0  1   7    0    0   0.000    0.000    0.000  1
  6   1    1  1 0 1     8  16    97  112  112     0.00000   1.36435 2.63923e-002  1150  1464   0.00  -0.00  -0.00  -26.17   28.84    3.39  2.200  0.000 0 3 0 2  1.607  1.607  78.64    0.00     0.00    0.00   1   90.00     0    0    0    63   0.0  1   7    0    0   0.000    0.000    0.000  1
  8   1    1  1 0 1     9  16    97  112  112     0.00000   1.36435 2.63923e-002  1063  1322   0.00  -0.00  -0.00  -21.77   28.84    3.39  2.200  0.000 0 3 0 2  1.607  1.607  78.64    0.00     0.00    0.00   1   90.00     0    0    0    63   0.0  1   7    0    0   0.000    0.000    0.000  1
 10   1    1  1 0 1    10  16    97  112  112     0.00000   1.36435 2.63923e-002  1083  1412   0.00  -0.00  -0.00  -17.37   28.84    3.39  2.200  0.000 0 3 0 2  1.607  1.607  78.64    0.00     0.00    0.00   1   90.00     0    0    0    63   0.0  1   7    0    0   0.000    0.000    0.000  1
 12   1    1  1 0 1    11  16    97  112  112     0.00000   1.36435 2.63923e-002  1134  1524   0.00  -0.00  -0.00  -12.97   28.84    3.39  2.200  0.000 0 3 0 2  1.607  1.607  78.64    0.00     0.00    0.00   1   90.00     0    0    0    63   0.0  1   7    0    0   0.000    0.000    0.000  1
  5   1    1  1 0 1    12  16    97  112  112     0.00000   1.36435 2.63923e-002   304   194   0.00  -0.00  -0.00  -28.37   28.84    3.39  2.200  0.000 0 3 0 2  1.607  1.607  78.64    0.00     0.00  800.00   1   90.00     0    0    0    63   0.0  2   1    0    0   0.000    1.000    0.000  1
  5   1    1  1 0 1    13  16    97  112  112     0.00000   1.36435 2.63923e-002   309   198   0.00  -0.00  -0.00  -28.37   28.84    3.39  2.200  0.000 0 3 0 2  1.607  1.607  78.64    0.00     0.00  800.00   1   90.00     0    0    0    63   0.0  2   7    0    0   0.000    0.000    0.000  1
  5   1    1  1 0 1    14  16    97  112  112     0.00000   1.36435 2.63923e-002   346   274   0.00  -0.00  -0.00  -28.37   28.84    3.39  2.200  0.000 0 3 0 2  1.607  1.607  78.64    0.00     0.00  800.00   1   90.00     0    0    0    63   0.0  2   6    0    0   0.704    0.088    0.704  1
  5   1    1  1 0 1    15  16    97  112  112     0.00000   1.36435 2.63923e-002   311   196   0.00  -0.00  -0.00  -28.37   28.84    3.39  2.200  0.000 0 3 0 2  1.607  1.607  78.64    0.00     0.00  800.00   1   90.00     0    0    0    63   0.0  2   2    0    0   0.000    0.000    1.000  1
  5   1    1  1 0 1    16  16    97  112  112     0.00000   1.36435 2.63923e-002   299   187   0.00  -0.00  -0.00  -28.37   28.84    3.39  2.200  0.000 0 3 0 2  1.607  1.607  78.64    0.00     0.00  800.00   1   90.00     0    0    0    63   0.0  2   5    0    0   0.088    0.704    0.704  1
  5   1    1  1 0 1    17  16    97  112  112     0.00000   1.36435 2.63923e-002   377   311   0.00  -0.00  -0.00  -28.37   28.84    3.39  2.200  0.000 0 3 0 2  1.607  1.607  78.64    0.00     0.00  800.00   1   90.00     0    0    0    63   0.0  2   4    0    0  -0.704   -0.704   -0.088  1
  5   1    1  1 0 1    18  16    97  112  112     0.00000   1.36435 2.63923e-002   349   282   0.00  -0.00  -0.00  -28.37   28.84    3.39  2.200  0.000 0 3 0 2  1.607  1.607  78.64    0.00     0.00  800.00   1   90.00     0    0    0    63   0.0  2   3    0    0   1.000    0.000    0.000  1
  7   1    1  1 0 1    19  16    97  112  112     0.00000   1.36435 2.63923e-002   313   201   0.00  -0.00  -0.00  -23.97   28.84    3.39  2.200  0.000 0 3 0 2  1.607  1.607  78.64    0.00     0.00  800.00   1   90.00     0    0    0    63   0.0  2   1    0    0   0.000    1.000    0.000  1
  7   1    1  1 0 1    20  16    97  112  112     0.00000   1.36435 2.63923e-002   316   195   0.00  -0.00  -0.00  -23.97   28.84    3.39  2.200  0.000 0 3 0 2  1.607  1.607  78.64    0.00     0.00  800.00   1   90.00     0    0    0    63   0.0  2   2    0    0   0.000    0.000    1.000  1
  7   1    1  1 0 1    21  16    97  112  112     0.00000   1.36435 2.63923e-002   311   193   0.00  -0.00  -0.00  -23.97   28.84    3.39  2.200  0.000 0 3 0 2  1.607  1.607  78.64    0.00     0.00  800.00   1   90.00     0    0    0    63   0.0  2   7    0    0   0.000    0.000    0.000  1
  7   1    1  1 0 1    22  16    97  112  112     0.00000   1.36435 2.63923e-002   349   275   0.00  -0.00  -0.00  -23.97   28.84    3.39  2.200  0.000 0 3 0 2  1.607  1.607  78.64    0.00     0.00  800.00   1   90.00     0    0    0    63   0.0  2   3    0    0   1.000    0.000    0.000  1
  7   1    1  1 0 1    23  16    97  112  112     0.00000   1.36435 2.63923e-002   353   282   0.00  -0.00  -0.00  -23.97   28.84    3.39  2.200  0.000 0 3 0 2  1.607  1.607  78.64    0.00     0.00  800.00   1   90.00     0    0    0    63   0.0  2   6    0    0   0.704    0.088    0.704  1
  7   1    1  1 0 1    24  16    97  112  112     0.00000   1.36435 2.63923e-002   314   207   0.00  -0.00  -0.00  -23.97   28.84    3.39  2.200  0.000 0 3 0 2  1.607  1.607  78.64    0.00     0.00  800.00   1   90.00     0    0    0    63   0.0  2   5    0    0   0.088    0.704    0.704  1
  7   1    1  1 0 1    25  16    97  112  112     0.00000   1.36435 2.63923e-002   405   359   0.00  -0.00  -0.00  -23.97   28.84    3.39  2.200  0.000 0 3 0 2  1.607  1.607  78.64    0.00     0.00  800.00   1   90.00     0    0    0    63   0.0  2   4    0    0  -0.704   -0.704   -0.088  1
  3   1    1  1 0 1    26  16    97  112  112     0.00000   1.36435 2.63923e-002   312   211   0.00  -0.00  -0.00  -32.77   28.84    3.39  2.200  0.000 0 3 0 2  1.607  1.607  78.64    0.00     0.00  800.00   1   90.00     0    0    0    63   0.0  2   1    0    0   0.000    1.000    0.000  1
  9   1    1  1 0 1    27  16    97  112  112     0.00000   1.36435 2.63923e-002   301   183   0.00  -0.00  -0.00  -19.57   28.84    3.39  2.200  0.000 0 3 0 2  1.607  1.607  78.64    0.00     0.00  800.00   1   90.00     0    0    0    63   0.0  2   1    0    0   0.000    1.000    0.000  1
  9   1    1  1 0 1    28  16    97  112  112     0.00000   1.36435 2.63923e-002   301   180   0.00  -0.00  -0.00  -19.57   28.84    3.39  2.200  0.000 0 3 0 2  1.607  1.607  78.64    0.00     0.00  800.00   1   90.00     0    0    0    63   0.0  2   7    0    0   0.000    0.000    0.000  1
  9   1    1  1 0 1    29  16    97  112  112     0.00000   1.36435 2.63923e-002   366   319   0.00  -0.00  -0.00  -19.57   28.84    3.39  2.200  0.000 0 3 0 2  1.607  1.607  78.64    0.00     0.00  800.00   1   90.00     0    0    0    63   0.0  2   6    0    0   0.704    0.088    0.704  1
  3   1    1  1 0 1    30  16    97  112  112     0.00000   1.36435 2.63923e-002   332   239   0.00  -0.00  -0.00  -32.77   28.84    3.39  2.200  0.000 0 3 0 2  1.607  1.607  78.64    0.00     0.00  800.00   1   90.00     0    0    0    63   0.0  2   2    0    0   0.000    0.000    1.000  1
  9   1    1  1 0 1    31  16    97  112  112     0.00000   1.36435 2.63923e-002   417   388   0.00  -0.00  -0.00  -19.57   28.84    3.39  2.200  0.000 0 3 0 2  1.607  1.607  78.64    0.00     0.00  800.00   1   90.00     0    0    0    63   0.0  2   4    0    0  -0.704   -0.704   -0.088  1
  9   1    1  1 0 1    32  16    97  112  112     0.00000   1.36435 2.63923e-002   302   175   0.00  -0.00  -0.00  -19.57   28.84    3.39  2.200  0.000 0 3 0 2  1.607  1.607  78.64    0.00     0.00  800.00   1   90.00     0    0    0    63   0.0  2   2    0    0   0.000    0.000    1.000  1
  9   1    1  1 0 1    33  16    97  112  112     0.00000   1.36435 2.63923e-002   291   172   0.00  -0.00  -0.00  -19.57   28.84    3.39  2.200  0.000 0 3 0 2  1.607  1.607  78.64    0.00     0.00  800.00   1   90.00     0    0    0    63   0.0  2   5    0    0   0.088    0.704    0.704  1
  9   1    1  1 0 1    34  16    97  112  112     0.00000   1.36435 2.63923e-002   358   301   0.00  -0.00  -0.00  -19.57   28.84    3.39  2.200  0.000 0 3 0 2  1.607  1.607  78.64    0.00     0.00  800.00   1   90.00     0    0    0    63   0.0  2   3    0    0   1.000    0.000    0.000  1
  3   1    1  1 0 1    35  16    97  112  112     0.00000   1.36435 2.63923e-002   369   318   0.00  -0.00  -0.00  -32.77   28.84    3.39  2.200  0.000 0 3 0 2  1.607  1.607  78.64    0.00     0.00  800.00   1   90.00     0    0    0    63   0.0  2   3    0    0   1.000    0.000    0.000  1
  3   1    1  1 0 1    36  16    97  112  112     0.00000   1.36435 2.63923e-002   384   322   0.00  -0.00  -0.00  -32.77   28.84    3.39  2.200  0.000 0 3 0 2  1.607  1.607  78.64    0.00     0.00  800.00   1   90.00     0    0    0    63   0.0  2   4    0    0  -0.704   -0.704   -0.088  1
  3   1    1  1 0 1    37  16    97  112  112     0.00000   1.36435 2.63923e-002   328   240   0.00  -0.00  -0.00  -32.77   28.84    3.39  2.200  0.000 0 3 0 2  1.607  1.607  78.64    0.00     0.00  800.00   1   90.00     0    0    0    63   0.0  2   5    0    0   0.088    0.704    0.704  1
  3   1    1  1 0 1    38  16    97  112  112     0.00000   1.36435 2.63923e-002   359   297   0.00  -0.00  -0.00  -32.77   28.84    3.39  2.200  0.000 0 3 0 2  1.607  1.607  78.64    0.00     0.00  800.00   1   90.00     0    0    0    63   0.0  2   6    0    0   0.704    0.088    0.704  1
 11   1    1  1 0 1    39  16    97  112  112     0.00000   1.36435 2.63923e-002   288   185   0.00  -0.00  -0.00  -15.17   28.84    3.39  2.200  0.000 0 3 0 2  1.607  1.607  78.64    0.00     0.00  800.00   1   90.00     0    0    0    63   0.0  2   1    0    0   0.000    1.000    0.000  1
  3   1    1  1 0 1    40  16    97  112  112     0.00000   1.36435 2.63923e-002   330   239   0.00  -0.00  -0.00  -32.77   28.84    3.39  2.200  0.000 0 3 0 2  1.607  1.607  78.64    0.00     0.00  800.00   1   90.00     0    0    0    63   0.0  2   7    0    0   0.000    0.000    0.000  1
 11   1    1  1 0 1    41  16    97  112  112     0.00000   1.36435 2.63923e-002   288   182   0.00  -0.00  -0.00  -15.17   28.84    3.39  2.200  0.000 0 3 0 2  1.607  1.607  78.64    0.00     0.00  800.00   1   90.00     0    0    0    63   0.0  2   7    0    0   0.000    0.000    0.000  1
 11   1    1  1 0 1    42  16    97  112  112     0.00000   1.36435 2.63923e-002   298   215   0.00  -0.00  -0.00  -15.17   28.84    3.39  2.200  0.000 0 3 0 2  1.607  1.607  78.64    0.00     0.00  800.00   1   90.00     0    0    0    63   0.0  2   5    0    0   0.088    0.704    0.704  1
 11   1    1  1 0 1    43  16    97  112  112     0.00000   1.36435 2.63923e-002   384   349   0.00  -0.00  -0.00  -15.17   28.84    3.39  2.200  0.000 0 3 0 2  1.607  1.607  78.64    0.00     0.00  800.00   1   90.00     0    0    0    63   0.0  2   4    0    0  -0.704   -0.704   -0.088  1
 11   1    1  1 0 1    44  16    97  112  112     0.00000   1.36435 2.63923e-002   348   310   0.00  -0.00  -0.00  -15.17   28.84    3.39  2.200  0.000 0 3 0 2  1.607  1.607  78.64    0.00     0.00  800.00   1   90.00     0    0    0    63   0.0  2   6    0    0   0.704    0.088    0.704  1
 11   1    1  1 0 1    45  16    97  112  112     0.00000   1.36435 2.63923e-002   306   214   0.00  -0.00  -0.00  -15.17   28.84    3.39  2.200  0.000 0 3 0 2  1.607  1.607  78.64    0.00     0.00  800.00   1   90.00     0    0    0    63   0.0  2   2    0    0   0.000    0.000    1.000  1
 11   1    1  1 0 1    46  16    97  112  112     0.00000   1.36435 2.63923e-002   335   282   0.00  -0.00  -0.00  -15.17   28.84    3.39  2.200  0.000 0 3 0 2  1.607  1.607  78.64    0.00     0.00  800.00   1   90.00     0    0    0    63   0.0  2   3    0    0   1.000    0.000    0.000  1
  2   1    1  1 0 1    47  16    97  112  112     0.00000   1.36435 2.63923e-002   286   222   0.00  -0.00  -0.00  -34.97   28.84    3.39  2.200  0.000 0 3 0 2  1.607  1.607  78.64    0.00     0.00  800.00   1   90.00     0    0    0    63   0.0  2   1    0    0   0.000    1.000    0.000  1
  2   1    1  1 0 1    48  16    97  112  112     0.00000   1.36435 2.63923e-002   312   276   0.00  -0.00  -0.00  -34.97   28.84    3.39  2.200  0.000 0 3 0 2  1.607  1.607  78.64    0.00     0.00  800.00   1   90.00     0    0    0    63   0.0  2   6    0    0   0.704    0.088    0.704  1
  2   1    1  1 0 1    49  16    97  112  112     0.00000   1.36435 2.63923e-002   291   230   0.00  -0.00  -0.00  -34.97   28.84    3.39  2.200  0.000 0 3 0 2  1.607  1.607  78.64    0.00     0.00  800.00   1   90.00     0    0    0    63   0.0  2   7    0    0   0.000    0.000    0.000  1
  2   1    1  1 0 1    50  16    97  112  112     0.00000   1.36435 2.63923e-002   295   231   0.00  -0.00  -0.00  -34.97   28.84    3.39  2.200  0.000 0 3 0 2  1.607  1.607  78.64    0.00     0.00  800.00   1   90.00     0    0    0    63   0.0  2   2    0    0   0.000    0.000    1.000  1
  2   1    1  1 0 1    51  16    97  112  112     0.00000   1.36435 2.63923e-002   320   290   0.00  -0.00  -0.00  -34.97   28.84    3.39  2.200  0.000 0 3 0 2  1.607  1.607  78.64    0.00     0.00  800.00   1   90.00     0    0    0    63   0.0  2   3    0    0   1.000    0.000    0.000  1
  2   1    1  1 0 1    52  16    97  112  112     0.00000   1.36435 2.63923e-002   301   252   0.00  -0.00  -0.00  -34.97   28.84    3.39  2.200  0.000 0 3 0 2  1.607  1.607  78.64    0.00     0.00  800.00   1   90.00     0    0    0    63   0.0  2   5    0    0   0.088    0.704    0.704  1
  2   1    1  1 0 1    53  16    97  112  112     0.00000   1.36435 2.63923e-002   338   299   0.00  -0.00  -0.00  -34.97   28.84    3.39  2.200  0.000 0 3 0 2  1.607  1.607  78.64    0.00     0.00  800.00   1   90.00     0    0    0    63   0.0  2   4    0    0  -0.704   -0.704   -0.088  1
  4   1    1  1 0 1    54  16    97  112  112     0.00000   1.36435 2.63923e-002   266   178   0.00  -0.00  -0.00  -30.57   28.84    3.39  2.200  0.000 0 3 0 2  1.607  1.607  78.64    0.00     0.00  800.00   1   90.00     0    0    0    63   0.0  2   1    0    0   0.000    1.000    0.000  1
  4   1    1  1 0 1    55  16    97  112  112     0.00000   1.36435 2.63923e-002   294   235   0.00  -0.00  -0.00  -30.57   28.84    3.39  2.200  0.000 0 3 0 2  1.607  1.607  78.64    0.00     0.00  800.00   1   90.00     0    0    0    63   0.0  2   6    0    0   0.704    0.088    0.704  1
  4   1    1  1 0 1    56  16    97  112  112     0.00000   1.36435 2.63923e-002   271   185   0.00  -0.00  -0.00  -30.57   28.84    3.39  2.200  0.000 0 3 0 2  1.607  1.607  78.64    0.00     0.00  800.00   1   90.00     0    0    0    63   0.0  2   7    0    0   0.000    0.000    0.000  1
  4   1    1  1 0 1    57  16    97  112  112     0.00000   1.36435 2.63923e-002   267   182   0.00  -0.00  -0.00  -30.57   28.84    3.39  2.200  0.000 0 3 0 2  1.607  1.607  78.64    0.00     0.00  800.00   1   90.00     0    0    0    63   0.0  2   5    0    0   0.088    0.704    0.704  1
  4   1    1  1 0 1    58  16    97  112  112     0.00000   1.36435 2.63923e-002   320   259   0.00  -0.00  -0.00  -30.57   28.84    3.39  2.200  0.000 0 3 0 2  1.607  1.607  78.64    0.00     0.00  800.00   1   90.00     0    0    0    63   0.0  2   4    0    0  -0.704   -0.704   -0.088  1
  4   1    1  1 0 1    59  16    97  112  112     0.00000   1.36435 2.63923e-002   267   170   0.00  -0.00  -0.00  -30.57   28.84    3.39  2.200  0.000 0 3 0 2  1.607  1.607  78.64    0.00     0.00  800.00   1   90.00     0    0    0    63   0.0  2   2    0    0   0.000    0.000    1.000  1
  4   1    1  1 0 1    60  16    97  112  112     0.00000   1.36435 2.63923e-002   304   256   0.00  -0.00  -0.00  -30.57   28.84    3.39  2.200  0.000 0 3 0 2  1.607  1.607  78.64    0.00     0.00  800.00   1   90.00     0    0    0    63   0.0  2   3    0    0   1.000    0.000    0.000  1
  6   1    1  1 0 1    61  16    97  112  112     0.00000   1.36435 2.63923e-002   266   169   0.00  -0.00  -0.00  -26.17   28.84    3.39  2.200  0.000 0 3 0 2  1.607  1.607  78.64    0.00     0.00  800.00   1   90.00     0    0    0    63   0.0  2   1    0    0   0.000    1.000    0.000  1
  6   1    1  1 0 1    62  16    97  112  112     0.00000   1.36435 2.63923e-002   265   165   0.00  -0.00  -0.00  -26.17   28.84    3.39  2.200  0.000 0 3 0 2  1.607  1.607  78.64    0.00     0.00  800.00   1   90.00     0    0    0    63   0.0  2   7    0    0   0.000    0.000    0.000  1
  6   1    1  1 0 1    63  16    97  112  112     0.00000   1.36435 2.63923e-002   316   271   0.00  -0.00  -0.00  -26.17   28.84    3.39  2.200  0.000 0 3 0 2  1.607  1.607  78.64    0.00     0.00  800.00   1   90.00     0    0    0    63   0.0  2   6    0    0   0.704    0.088    0.704  1
  6   1    1  1 0 1    64  16    97  112  112     0.00000   1.36435 2.63923e-002   264   157   0.00  -0.00  -0.00  -26.17   28.84    3.39  2.200  0.000 0 3 0 2  1.607  1.607  78.64    0.00     0.00  800.00   1   90.00     0    0    0    63   0.0  2   2    0    0   0.000    0.000    1.000  1
  6   1    1  1 0 1    65  16    97  112  112     0.00000   1.36435 2.63923e-002   260   163   0.00  -0.00  -0.00  -26.17   28.84    3.39  2.200  0.000 0 3 0 2  1.607  1.607  78.64    0.00     0.00  800.00   1   90.00     0    0    0    63   0.0  2   5    0    0   0.088    0.704    0.704  1
  6   1    1  1 0 1    66  16    97  112  112     0.00000   1.36435 2.63923e-002   336   287   0.00  -0.00  -0.00  -26.17   28.84    3.39  2.200  0.000 0 3 0 2  1.607  1.607  78.64    0.00     0.00  800.00   1   90.00     0    0    0    63   0.0  2   4    0    0  -0.704   -0.704   -0.088  1
  6   1    1  1 0 1    67  16    97  112  112     0.00000   1.36435 2.63923e-002   292   223   0.00  -0.00  -0.00  -26.17   28.84    3.39  2.200  0.000 0 3 0 2  1.607  1.607  78.64    0.00     0.00  800.00   1   90.00     0    0    0    63   0.0  2   3    0    0   1.000    0.000    0.000  1
  1   1    1  1 0 1    68  16    97  112  112     0.00000   1.36435 2.63923e-002   398   383   0.00  -0.00  -0.00  -37.17   28.84    3.39  2.200  0.000 0 3 0 2  1.607  1.607  78.64    0.00     0.00  800.00   1   90.00     0    0    0    63   0.0  2   1    0    0   0.000    1.000    0.000  1
  1   1    1  1 0 1    69  16    97  112  112     0.00000   1.36435 2.63923e-002   419   418   0.00  -0.00  -0.00  -37.17   28.84    3.39  2.200  0.000 0 3 0 2  1.607  1.607  78.64    0.00     0.00  800.00   1   90.00     0    0    0    63   0.0  2   2    0    0   0.000    0.000    1.000  1
  1   1    1  1 0 1    70  16    97  112  112     0.00000   1.36435 2.63923e-002   414   413   0.00  -0.00  -0.00  -37.17   28.84    3.39  2.200  0.000 0 3 0 2  1.607  1.607  78.64    0.00     0.00  800.00   1   90.00     0    0    0    63   0.0  2   3    0    0   1.000    0.000    0.000  1
  8   1    1  1 0 1    71  16    97  112  112     0.00000   1.36435 2.63923e-002   272   182   0.00  -0.00  -0.00  -21.77   28.84    3.39  2.200  0.000 0 3 0 2  1.607  1.607  78.64    0.00     0.00  800.00   1   90.00     0    0    0    63   0.0  2   7    0    0   0.000    0.000    0.000  1
  8   1    1  1 0 1    72  16    97  112  112     0.00000   1.36435 2.63923e-002   272   183   0.00  -0.00  -0.00  -21.77   28.84    3.39  2.200  0.000 0 3 0 2  1.607  1.607  78.64    0.00     0.00  800.00   1   90.00     0    0    0    63   0.0  2   1    0    0   0.000    1.000    0.000  1
  1   1    1  1 0 1    73  16    97  112  112     0.00000   1.36435 2.63923e-002   421   399   0.00  -0.00  -0.00  -37.17   28.84    3.39  2.200  0.000 0 3 0 2  1.607  1.607  78.64    0.00     0.00  800.00   1   90.00     0    0    0    63   0.0  2   4    0    0  -0.704   -0.704   -0.088  1
  8   1    1  1 0 1    74  16    97  112  112     0.00000   1.36435 2.63923e-002   324   290   0.00  -0.00  -0.00  -21.77   28.84    3.39  2.200  0.000 0 3 0 2  1.607  1.607  78.64    0.00     0.00  800.00   1   90.00     0    0    0    63   0.0  2   6    0    0   0.704    0.088    0.704  1
  8   1    1  1 0 1    75  16    97  112  112     0.00000   1.36435 2.63923e-002   267   179   0.00  -0.00  -0.00  -21.77   28.84    3.39  2.200  0.000 0 3 0 2  1.607  1.607  78.64    0.00     0.00  800.00   1   90.00     0    0    0    63   0.0  2   5    0    0   0.088    0.704    0.704  1
  8   1    1  1 0 1    76  16    97  112  112     0.00000   1.36435 2.63923e-002   267   166   0.00  -0.00  -0.00  -21.77   28.84    3.39  2.200  0.000 0 3 0 2  1.607  1.607  78.64    0.00     0.00  800.00   1   90.00     0    0    0    63   0.0  2   2    0    0   0.000    0.000    1.000  1
  1   1    1  1 0 1    77  16    97  112  112     0.00000   1.36435 2.63923e-002   425   439   0.00  -0.00  -0.00  -37.17   28.84    3.39  2.200  0.000 0 3 0 2  1.607  1.607  78.64    0.00     0.00  800.00   1   90.00     0    0    0    63   0.0  2   5    0    0   0.088    0.704    0.704  1
  8   1    1  1 0 1    78  16    97  112  112     0.00000   1.36435 2.63923e-002   362   340   0.00  -0.00  -0.00  -21.77   28.84    3.39  2.200  0.000 0 3 0 2  1.607  1.607  78.64    0.00     0.00  800.00   1   90.00     0    0    0    63   0.0  2   4    0    0  -0.704   -0.704   -0.088  1
  8   1    1  1 0 1    79  16    97  112  112     0.00000   1.36435 2.63923e-002   295   234   0.00  -0.00  -0.00  -21.77   28.84    3.39  2.200  0.000 0 3 0 2  1.607  1.607  78.64    0.00     0.00  800.00   1   90.00     0    0    0    63   0.0  2   3    0    0   1.000    0.000    0.000  1
  1   1    1  1 0 1    80  16    97  112  112     0.00000   1.36435 2.63923e-002   412   408   0.00  -0.00  -0.00  -37.17   28.84    3.39  2.200  0.000 0 3 0 2  1.607  1.607  78.64    0.00     0.00  800.00   1   90.00     0    0    0    63   0.0  2   6    0    0   0.704    0.088    0.704  1
  1   1    1  1 0 1    81  16    97  112  112     0.00000   1.36435 2.63923e-002   393   368   0.00  -0.00  -0.00  -37.17   28.84    3.39  2.200  0.000 0 3 0 2  1.607  1.607  78.64    0.00     0.00  800.00   1   90.00     0    0    0    63   0.0  2   7    0    0   0.000    0.000    0.000  1
 10   1    1  1 0 1    82  16    97  112  112     0.00000   1.36435 2.63923e-002   259   174   0.00  -0.00  -0.00  -17.37   28.84    3.39  2.200  0.000 0 3 0 2  1.607  1.607  78.64    0.00     0.00  800.00   1   90.00     0    0    0    63   0.0  2   7    0    0   0.000    0.000    0.000  1
 10   1    1  1 0 1    83  16    97  112  112     0.00000   1.36435 2.63923e-002   257   173   0.00  -0.00  -0.00  -17.37   28.84    3.39  2.200  0.000 0 3 0 2  1.607  1.607  78.64    0.00     0.00  800.00   1   90.00     0    0    0    63   0.0  2   1    0    0   0.000    1.000    0.000  1
