# === DATA DESCRIPTION FILE ======================================================
#
# CAUTION - Investigational device.
# Limited by Federal Law to investigational use.
#
# Dataset name: E:\Dicom\Alex\test_data
#
# CLINICAL TRYOUT             Research image export tool     V4.2
#
# === GENERAL INFORMATION ========================================================
#
.    Patient name                       :   dynamic
.    Examination name                   :   test_data
.    Protocol name                      :   T1map
.    Examination date/time              :   2018.10.09 / 12:42:25
.    Series Type                        :   Image   MRSERIES
.    Acquisition nr                     :   11
.    Reconstruction nr                  :   1
.    Scan Duration [sec]                :   88
.    Max. number of cardiac phases      :   1
.    Max. number of echoes              :   1
.    Max. number of slices/locations    :   9
.    Max. number of dynamics            :   10
.    Max. number of mixes               :   1
.    Patient position                   :   Feet First Supine
.    Preparation direction              :   Anterior-Posterior
.    Technique                          :   SEEPI
.    Scan resolution  (x, y)            :   96  94
.    Scan mode                          :   MS
.    Repetition time [ms]               :   8000.000  
.    FOV (ap,fh,rl) [mm]                :   288.000  104.000  288.000
.    Water Fat shift [pixels]           :   11.559
.    Angulation midslice(ap,fh,rl)[degr]:   0.000  0.000  0.000
.    Off Centre midslice(ap,fh,rl) [mm] :   30.228  -18.600  -46.217
.    Flow compensation <0=no 1=yes> ?   :   0
.    Presaturation     <0=no 1=yes> ?   :   0
.    Phase encoding velocity [cm/sec]   :   0.000000  0.000000  0.000000
.    MTC               <0=no 1=yes> ?   :   0
.    SPIR              <0=no 1=yes> ?   :   1
.    EPI factor        <0,1=no EPI>     :   47
.    Dynamic scan      <0=no 1=yes> ?   :   1
.    Diffusion         <0=no 1=yes> ?   :   0
.    Diffusion echo time [ms]           :   0.0000
.    Max. number of diffusion values    :   1
.    Max. number of gradient orients    :   1
.    Number of label types   <0=no ASL> :   0
#
# === PIXEL VALUES =============================================================
#  PV = pixel value in REC file, FP = floating point value, DV = displayed value on console
#  RS = rescale slope,           RI = rescale intercept,    SS = scale slope
#  DV = PV * RS + RI             FP = DV / (RS * SS)
#
# === IMAGE INFORMATION DEFINITION =============================================
#  The rest of this file contains ONE line per image, this line contains the following information:
#
#  slice number                             (integer)
#  echo number                              (integer)
#  dynamic scan number                      (integer)
#  cardiac phase number                     (integer)
#  image_type_mr                            (integer)
#  scanning sequence                        (integer)
#  index in REC file (in images)            (integer)
#  image pixel size (in bits)               (integer)
#  scan percentage                          (integer)
#  recon resolution (x y)                   (2*integer)
#  rescale intercept                        (float)
#  rescale slope                            (float)
#  scale slope                              (float)
#  window center                            (integer)
#  window width                             (integer)
#  image angulation (ap,fh,rl in degrees )  (3*float)
#  image offcentre (ap,fh,rl in mm )        (3*float)
#  slice thickness (in mm )                 (float)
#  slice gap (in mm )                       (float)
#  image_display_orientation                (integer)
#  slice orientation ( TRA/SAG/COR )        (integer)
#  fmri_status_indication                   (integer)
#  image_type_ed_es  (end diast/end syst)   (integer)
#  pixel spacing (x,y) (in mm)              (2*float)
#  echo_time                                (float)
#  dyn_scan_begin_time                      (float)
#  trigger_time                             (float)
#  diffusion_b_factor                       (float)
#  number of averages                       (integer)
#  image_flip_angle (in degrees)            (float)
#  cardiac frequency   (bpm)                (integer)
#  minimum RR-interval (in ms)              (integer)
#  maximum RR-interval (in ms)              (integer)
#  TURBO factor  <0=no turbo>               (integer)
#  Inversion delay (in ms)                  (float)
#  diffusion b value number    (imagekey!)  (integer)
#  gradient orientation number (imagekey!)  (integer)
#  contrast type                            (string)
#  diffusion anisotropy type                (string)
#  diffusion (ap, fh, rl)                   (3*float)
#  label type (ASL)            (imagekey!)  (integer)
#
# === IMAGE INFORMATION ==========================================================
#  sl ec  dyn ph ty    idx pix scan% rec size                (re)scale              window        angulation              offcentre        thick   gap   info      spacing     echo     dtime   ttime    diff  avg  flip    freq   RR-int  turbo delay b grad cont anis         diffusion       L.ty

  1   1    1  1 0 1     0  16   100   96   96     0.00000   1.43223 2.20964e-003  1070  1860   0.00  -0.00  -0.00   30.23  -66.60  -46.22  8.000  4.000 0 1 0 2  3.000  3.000  28.00    0.00     0.00    0.00   1   90.00     0    0    0    47   0.0  1   1    3    0   0.000    0.000    0.000  1
  2   1    1  1 0 1     1  16   100   96   96     0.00000   1.43223 2.20964e-003   758  1318   0.00  -0.00  -0.00   30.23  -54.60  -46.22  8.000  4.000 0 1 0 2  3.000  3.000  28.00    0.00     0.00    0.00   1   90.00     0    0    0    47   0.0  1   1    3    0   0.000    0.000    0.000  1
  3   1    1  1 0 1     2  16   100   96   96     0.00000   1.43223 2.20964e-003   823  1430   0.00  -0.00  -0.00   30.23  -42.60  -46.22  8.000  4.000 0 1 0 2  3.000  3.000  28.00    0.00     0.00    0.00   1   90.00     0    0    0    47   0.0  1   1    3    0   0.000    0.000    0.000  1
  4   1    1  1 0 1     3  16   100   96   96     0.00000   1.43223 2.20964e-003   629  1094   0.00  -0.00  -0.00   30.23  -30.60  -46.22  8.000  4.000 0 1 0 2  3.000  3.000  28.00    0.00     0.00    0.00   1   90.00     0    0    0    47   0.0  1   1    3    0   0.000    0.000    0.000  1
  5   1    1  1 0 1     4  16   100   96   96     0.00000   1.43223 2.20964e-003   675  1173   0.00  -0.00  -0.00   30.23  -18.60  -46.22  8.000  4.000 0 1 0 2  3.000  3.000  28.00    0.00     0.00    0.00   1   90.00     0    0    0    47   0.0  1   1    3    0   0.000    0.000    0.000  1
  6   1    1  1 0 1     5  16   100   96   96     0.00000   1.43223 2.20964e-003   665  1156   0.00  -0.00  -0.00   30.23   -6.60  -46.22  8.000  4.000 0 1 0 2  3.000  3.000  28.00    0.00     0.00    0.00   1   90.00     0    0    0    47   0.0  1   1    3    0   0.000    0.000    0.000  1
  7   1    1  1 0 1     6  16   100   96   96     0.00000   1.43223 2.20964e-003   689  1197   0.00  -0.00  -0.00   30.23    5.40  -46.22  8.000  4.000 0 1 0 2  3.000  3.000  28.00    0.00     0.00    0.00   1   90.00     0    0    0    47   0.0  1   1    3    0   0.000    0.000    0.000  1
  8   1    1  1 0 1     7  16   100   96   96     0.00000   1.43223 2.20964e-003   718  1249   0.00  -0.00  -0.00   30.23   17.40  -46.22  8.000  4.000 0 1 0 2  3.000  3.000  28.00    0.00     0.00    0.00   1   90.00     0    0    0    47   0.0  1   1    3    0   0.000    0.000    0.000  1
  9   1    1  1 0 1     8  16   100   96   96     0.00000   1.43223 2.20964e-003   240   417   0.00  -0.00  -0.00   30.23   29.40  -46.22  8.000  4.000 0 1 0 2  3.000  3.000  28.00    0.00     0.00    0.00   1   90.00     0    0    0    47   0.0  1   1    3    0   0.000    0.000    0.000  1
  1   1    2  1 0 1     9  16   100   96   96     0.00000   1.43223 2.20964e-003   705  1226   0.00  -0.00  -0.00   30.23  -66.60  -46.22  8.000  4.000 0 1 0 2  3.000  3.000  28.00   13.50     0.00    0.00   1   90.00     0    0    0    47   0.0  1   1    3    0   0.000    0.000    0.000  1
  2   1    2  1 0 1    10  16   100   96   96     0.00000   1.43223 2.20964e-003   769  1337   0.00  -0.00  -0.00   30.23  -54.60  -46.22  8.000  4.000 0 1 0 2  3.000  3.000  28.00   13.50     0.00    0.00   1   90.00     0    0    0    47   0.0  1   1    3    0   0.000    0.000    0.000  1
  3   1    2  1 0 1    11  16   100   96   96     0.00000   1.43223 2.20964e-003   682  1186   0.00  -0.00  -0.00   30.23  -42.60  -46.22  8.000  4.000 0 1 0 2  3.000  3.000  28.00   13.50     0.00    0.00   1   90.00     0    0    0    47   0.0  1   1    3    0   0.000    0.000    0.000  1
  4   1    2  1 0 1    12  16   100   96   96     0.00000   1.43223 2.20964e-003   560   974   0.00  -0.00  -0.00   30.23  -30.60  -46.22  8.000  4.000 0 1 0 2  3.000  3.000  28.00   13.50     0.00    0.00   1   90.00     0    0    0    47   0.0  1   1    3    0   0.000    0.000    0.000  1
  5   1    2  1 0 1    13  16   100   96   96     0.00000   1.43223 2.20964e-003   542   942   0.00  -0.00  -0.00   30.23  -18.60  -46.22  8.000  4.000 0 1 0 2  3.000  3.000  28.00   13.50     0.00    0.00   1   90.00     0    0    0    47   0.0  1   1    3    0   0.000    0.000    0.000  1
  6   1    2  1 0 1    14  16   100   96   96     0.00000   1.43223 2.20964e-003   615  1069   0.00  -0.00  -0.00   30.23   -6.60  -46.22  8.000  4.000 0 1 0 2  3.000  3.000  28.00   13.50     0.00    0.00   1   90.00     0    0    0    47   0.0  1   1    3    0   0.000    0.000    0.000  1
  7   1    2  1 0 1    15  16   100   96   96     0.00000   1.43223 2.20964e-003   552   959   0.00  -0.00  -0.00   30.23    5.40  -46.22  8.000  4.000 0 1 0 2  3.000  3.000  28.00   13.50     0.00    0.00   1   90.00     0    0    0    47   0.0  1   1    3    0   0.000    0.000    0.000  1
  8   1    2  1 0 1    16  16   100   96   96     0.00000   1.43223 2.20964e-003   652  1134   0.00  -0.00  -0.00   30.23   17.40  -46.22  8.000  4.000 0 1 0 2  3.000  3.000  28.00   13.50     0.00    0.00   1   90.00     0    0    0    47   0.0  1   1    3    0   0.000    0.000    0.000  1
  9   1    2  1 0 1    17  16   100   96   96     0.00000   1.43223 2.20964e-003   239   416   0.00  -0.00  -0.00   30.23   29.40  -46.22  8.000  4.000 0 1 0 2  3.000  3.000  28.00   13.50     0.00    0.00   1   90.00     0    0    0    47   0.0  1   1    3    0   0.000    0.000    0.000  1
  1   1    3  1 0 1    18  16   100   96   96     0.00000   1.43223 2.20964e-003   628  1091   0.00  -0.00  -0.00   30.23  -66.60  -46.22  8.000  4.000 0 1 0 2  3.000  3.000  28.00   26.80     0.00    0.00   1   90.00     0    0    0    47   0.0  1   1    3    0   0.000    0.000    0.000  1
  2   1    3  1 0 1    19  16   100   96   96     0.00000   1.43223 2.20964e-003   589  1023   0.00  -0.00  -0.00   30.23  -54.60  -46.22  8.000  4.000 0 1 0 2  3.000  3.000  28.00   26.80     0.00    0.00   1   90.00     0    0    0    47   0.0  1   1    3    0   0.000    0.000    0.000  1
  3   1    3  1 0 1    20  16   100   96   96     0.00000   1.43223 2.20964e-003   624  1085   0.00  -0.00  -0.00   30.23  -42.60  -46.22  8.000  4.000 0 1 0 2  3.000  3.000  28.00   26.80     0.00    0.00   1   90.00     0    0    0    47   0.0  1   1    3    0   0.000    0.000    0.000  1
  4   1    3  1 0 1    21  16   100   96   96     0.00000   1.43223 2.20964e-003   448   779   0.00  -0.00  -0.00   30.23  -30.60  -46.22  8.000  4.000 0 1 0 2  3.000  3.000  28.00   26.80     0.00    0.00   1   90.00     0    0    0    47   0.0  1   1    3    0   0.000    0.000    0.000  1
  5   1    3  1 0 1    22  16   100   96   96     0.00000   1.43223 2.20964e-003   471   819   0.00  -0.00  -0.00   30.23  -18.60  -46.22  8.000  4.000 0 1 0 2  3.000  3.000  28.00   26.80     0.00    0.00   1   90.00     0    0    0    47   0.0  1   1    3    0   0.000    0.000    0.000  1
  6   1    3  1 0 1    23  16   100   96   96     0.00000   1.43223 2.20964e-003   508   882   0.00  -0.00  -0.00   30.23   -6.60  -46.22  8.000  4.000 0 1 0 2  3.000  3.000  28.00   26.80     0.00    0.00   1   90.00     0    0    0    47   0.0  1   1    3    0   0.000    0.000    0.000  1
  7   1    3  1 0 1    24  16   100   96   96     0.00000   1.43223 2.20964e-003   559   971   0.00  -0.00  -0.00   30.23    5.40  -46.22  8.000  4.000 0 1 0 2  3.000  3.000  28.00   26.80     0.00    0.00   1   90.00     0    0    0    47   0.0  1   1    3    0   0.000    0.000    0.000  1
  8   1    3  1 0 1    25  16   100   96   96     0.00000   1.43223 2.20964e-003   527   917   0.00  -0.00  -0.00   30.23   17.40  -46.22  8.000  4.000 0 1 0 2  3.000  3.000  28.00   26.80     0.00    0.00   1   90.00     0    0    0    47   0.0  1   1    3    0   0.000    0.000    0.000  1
  9   1    3  1 0 1    26  16   100   96   96     0.00000   1.43223 2.20964e-003   176   305   0.00  -0.00  -0.00   30.23   29.40  -46.22  8.000  4.000 0 1 0 2  3.000  3.000  28.00   26.80     0.00    0.00   1   90.00     0    0    0    47   0.0  1   1    3    0   0.000    0.000    0.000  1
  1   1    4  1 0 1    27  16   100   96   96     0.00000   1.43223 2.20964e-003   569   989   0.00  -0.00  -0.00   30.23  -66.60  -46.22  8.000  4.000 0 1 0 2  3.000  3.000  28.00   41.30     0.00    0.00   1   90.00     0    0    0    47   0.0  1   1    3    0   0.000    0.000    0.000  1
  2   1    4  1 0 1    28  16   100   96   96     0.00000   1.43223 2.20964e-003   571   993   0.00  -0.00  -0.00   30.23  -54.60  -46.22  8.000  4.000 0 1 0 2  3.000  3.000  28.00   41.30     0.00    0.00   1   90.00     0    0    0    47   0.0  1   1    3    0   0.000    0.000    0.000  1
  3   1    4  1 0 1    29  16   100   96   96     0.00000   1.43223 2.20964e-003   608  1056   0.00  -0.00  -0.00   30.23  -42.60  -46.22  8.000  4.000 0 1 0 2  3.000  3.000  28.00   41.30     0.00    0.00   1   90.00     0    0    0    47   0.0  1   1    3    0   0.000    0.000    0.000  1
  4   1    4  1 0 1    30  16   100   96   96     0.00000   1.43223 2.20964e-003   577  1003   0.00  -0.00  -0.00   30.23  -30.60  -46.22  8.000  4.000 0 1 0 2  3.000  3.000  28.00   41.30     0.00    0.00   1   90.00     0    0    0    47   0.0  1   1    3    0   0.000    0.000    0.000  1
  5   1    4  1 0 1    31  16   100   96   96     0.00000   1.43223 2.20964e-003   693  1205   0.00  -0.00  -0.00   30.23  -18.60  -46.22  8.000  4.000 0 1 0 2  3.000  3.000  28.00   41.30     0.00    0.00   1   90.00     0    0    0    47   0.0  1   1    3    0   0.000    0.000    0.000  1
  6   1    4  1 0 1    32  16   100   96   96     0.00000   1.43223 2.20964e-003   609  1059   0.00  -0.00  -0.00   30.23   -6.60  -46.22  8.000  4.000 0 1 0 2  3.000  3.000  28.00   41.30     0.00    0.00   1   90.00     0    0    0    47   0.0  1   1    3    0   0.000    0.000    0.000  1
  7   1    4  1 0 1    33  16   100   96   96     0.00000   1.43223 2.20964e-003   485   844   0.00  -0.00  -0.00   30.23    5.40  -46.22  8.000  4.000 0 1 0 2  3.000  3.000  28.00   41.30     0.00    0.00   1   90.00     0    0    0    47   0.0  1   1    3    0   0.000    0.000    0.000  1
  8   1    4  1 0 1    34  16   100   96   96     0.00000   1.43223 2.20964e-003   494   858   0.00  -0.00  -0.00   30.23   17.40  -46.22  8.000  4.000 0 1 0 2  3.000  3.000  28.00   41.30     0.00    0.00   1   90.00     0    0    0    47   0.0  1   1    3    0   0.000    0.000    0.000  1
  9   1    4  1 0 1    35  16   100   96   96     0.00000   1.43223 2.20964e-003   204   354   0.00  -0.00  -0.00   30.23   29.40  -46.22  8.000  4.000 0 1 0 2  3.000  3.000  28.00   41.30     0.00    0.00   1   90.00     0    0    0    47   0.0  1   1    3    0   0.000    0.000    0.000  1
  1   1    5  1 0 1    36  16   100   96   96     0.00000   1.43223 2.20964e-003   571   993   0.00  -0.00  -0.00   30.23  -66.60  -46.22  8.000  4.000 0 1 0 2  3.000  3.000  28.00   56.70     0.00    0.00   1   90.00     0    0    0    47   0.0  1   1    3    0   0.000    0.000    0.000  1
  2   1    5  1 0 1    37  16   100   96   96     0.00000   1.43223 2.20964e-003   544   946   0.00  -0.00  -0.00   30.23  -54.60  -46.22  8.000  4.000 0 1 0 2  3.000  3.000  28.00   56.70     0.00    0.00   1   90.00     0    0    0    47   0.0  1   1    3    0   0.000    0.000    0.000  1
  3   1    5  1 0 1    38  16   100   96   96     0.00000   1.43223 2.20964e-003   586  1018   0.00  -0.00  -0.00   30.23  -42.60  -46.22  8.000  4.000 0 1 0 2  3.000  3.000  28.00   56.70     0.00    0.00   1   90.00     0    0    0    47   0.0  1   1    3    0   0.000    0.000    0.000  1
  4   1    5  1 0 1    39  16   100   96   96     0.00000   1.43223 2.20964e-003   430   748   0.00  -0.00  -0.00   30.23  -30.60  -46.22  8.000  4.000 0 1 0 2  3.000  3.000  28.00   56.70     0.00    0.00   1   90.00     0    0    0    47   0.0  1   1    3    0   0.000    0.000    0.000  1
  5   1    5  1 0 1    40  16   100   96   96     0.00000   1.43223 2.20964e-003   429   747   0.00  -0.00  -0.00   30.23  -18.60  -46.22  8.000  4.000 0 1 0 2  3.000  3.000  28.00   56.70     0.00    0.00   1   90.00     0    0    0    47   0.0  1   1    3    0   0.000    0.000    0.000  1
  6   1    5  1 0 1    41  16   100   96   96     0.00000   1.43223 2.20964e-003   457   795   0.00  -0.00  -0.00   30.23   -6.60  -46.22  8.000  4.000 0 1 0 2  3.000  3.000  28.00   56.70     0.00    0.00   1   90.00     0    0    0    47   0.0  1   1    3    0   0.000    0.000    0.000  1
  7   1    5  1 0 1    42  16   100   96   96     0.00000   1.43223 2.20964e-003   508   883   0.00  -0.00  -0.00   30.23    5.40  -46.22  8.000  4.000 0 1 0 2  3.000  3.000  28.00   56.70     0.00    0.00   1   90.00     0    0    0    47   0.0  1   1    3    0   0.000    0.000    0.000  1
  8   1    5  1 0 1    43  16   100   96   96     0.00000   1.43223 2.20964e-003   441   767   0.00  -0.00  -0.00   30.23   17.40  -46.22  8.000  4.000 0 1 0 2  3.000  3.000  28.00   56.70     0.00    0.00   1   90.00     0    0    0    47   0.0  1   1    3    0   0.000    0.000    0.000  1
  9   1    5  1 0 1    44  16   100   96   96     0.00000   1.43223 2.20964e-003   232   403   0.00  -0.00  -0.00   30.23   29.40  -46.22  8.000  4.000 0 1 0 2  3.000  3.000  28.00   56.70     0.00    0.00   1   90.00     0    0    0    47   0.0  1   1    3    0   0.000    0.000    0.000  1
  1   1    6  1 0 1    45  16   100   96   96     0.00000   1.43223 2.20964e-003   515   896   0.00  -0.00  -0.00   30.23  -66.60  -46.22  8.000  4.000 0 1 0 2  3.000  3.000  28.00   72.00     0.00    0.00   1   90.00     0    0    0    47   0.0  1   1    3    0   0.000    0.000    0.000  1
  2   1    6  1 0 1    46  16   100   96   96     0.00000   1.43223 2.20964e-003   506   880   0.00  -0.00  -0.00   30.23  -54.60  -46.22  8.000  4.000 0 1 0 2  3.000  3.000  28.00   72.00     0.00    0.00   1   90.00     0    0    0    47   0.0  1   1    3    0   0.000    0.000    0.000  1
  3   1    6  1 0 1    47  16   100   96   96     0.00000   1.43223 2.20964e-003   567   985   0.00  -0.00  -0.00   30.23  -42.60  -46.22  8.000  4.000 0 1 0 2  3.000  3.000  28.00   72.00     0.00    0.00   1   90.00     0    0    0    47   0.0  1   1    3    0   0.000    0.000    0.000  1
  4   1    6  1 0 1    48  16   100   96   96     0.00000   1.43223 2.20964e-003   458   797   0.00  -0.00  -0.00   30.23  -30.60  -46.22  8.000  4.000 0 1 0 2  3.000  3.000  28.00   72.00     0.00    0.00   1   90.00     0    0    0    47   0.0  1   1    3    0   0.000    0.000    0.000  1
  5   1    6  1 0 1    49  16   100   96   96     0.00000   1.43223 2.20964e-003   415   721   0.00  -0.00  -0.00   30.23  -18.60  -46.22  8.000  4.000 0 1 0 2  3.000  3.000  28.00   72.00     0.00    0.00   1   90.00     0    0    0    47   0.0  1   1    3    0   0.000    0.000    0.000  1
  6   1    6  1 0 1    50  16   100   96   96     0.00000   1.43223 2.20964e-003   412   716   0.00  -0.00  -0.00   30.23   -6.60  -46.22  8.000  4.000 0 1 0 2  3.000  3.000  28.00   72.00     0.00    0.00   1   90.00     0    0    0    47   0.0  1   1    3    0   0.000    0.000    0.000  1
  7   1    6  1 0 1    51  16   100   96   96     0.00000   1.43223 2.20964e-003   496   861   0.00  -0.00  -0.00   30.23    5.40  -46.22  8.000  4.000 0 1 0 2  3.000  3.000  28.00   72.00     0.00    0.00   1   90.00     0    0    0    47   0.0  1   1    3    0   0.000    0.000    0.000  1
  8   1    6  1 0 1    52  16   100   96   96     0.00000   1.43223 2.20964e-003   453   787   0.00  -0.00  -0.00   30.23   17.40  -46.22  8.000  4.000 0 1 0 2  3.000  3.000  28.00   72.00     0.00    0.00   1   90.00     0    0    0    47   0.0  1   1    3    0   0.000    0.000    0.000  1
  9   1    6  1 0 1    53  16   100   96   96     0.00000   1.43223 2.20964e-003   263   457   0.00  -0.00  -0.00   30.23   29.40  -46.22  8.000  4.000 0 1 0 2  3.000  3.000  28.00   72.00     0.00    0.00   1   90.00     0    0    0    47   0.0  1   1    3    0   0.000    0.000    0.000  1
  1   1    7  1 0 1    54  16   100   96   96     0.00000   1.43223 2.20964e-003   452   785   0.00  -0.00  -0.00   30.23  -66.60  -46.22  8.000  4.000 0 1 0 2  3.000  3.000  28.00   84.10     0.00    0.00   1   90.00     0    0    0    47   0.0  1   1    3    0   0.000    0.000    0.000  1
  2   1    7  1 0 1    55  16   100   96   96     0.00000   1.43223 2.20964e-003   455   791   0.00  -0.00  -0.00   30.23  -54.60  -46.22  8.000  4.000 0 1 0 2  3.000  3.000  28.00   84.10     0.00    0.00   1   90.00     0    0    0    47   0.0  1   1    3    0   0.000    0.000    0.000  1
  3   1    7  1 0 1    56  16   100   96   96     0.00000   1.43223 2.20964e-003   503   874   0.00  -0.00  -0.00   30.23  -42.60  -46.22  8.000  4.000 0 1 0 2  3.000  3.000  28.00   84.10     0.00    0.00   1   90.00     0    0    0    47   0.0  1   1    3    0   0.000    0.000    0.000  1
  4   1    7  1 0 1    57  16   100   96   96     0.00000   1.43223 2.20964e-003   467   812   0.00  -0.00  -0.00   30.23  -30.60  -46.22  8.000  4.000 0 1 0 2  3.000  3.000  28.00   84.10     0.00    0.00   1   90.00     0    0    0    47   0.0  1   1    3    0   0.000    0.000    0.000  1
  5   1    7  1 0 1    58  16   100   96   96     0.00000   1.43223 2.20964e-003   468   813   0.00  -0.00  -0.00   30.23  -18.60  -46.22  8.000  4.000 0 1 0 2  3.000  3.000  28.00   84.10     0.00    0.00   1   90.00     0    0    0    47   0.0  1   1    3    0   0.000    0.000    0.000  1
  6   1    7  1 0 1    59  16   100   96   96     0.00000   1.43223 2.20964e-003   458   796   0.00  -0.00  -0.00   30.23   -6.60  -46.22  8.000  4.000 0 1 0 2  3.000  3.000  28.00   84.10     0.00    0.00   1   90.00     0    0    0    47   0.0  1   1    3    0   0.000    0.000    0.000  1
  7   1    7  1 0 1    60  16   100   96   96     0.00000   1.43223 2.20964e-003   404   702   0.00  -0.00  -0.00   30.23    5.40  -46.22  8.000  4.000 0 1 0 2  3.000  3.000  28.00   84.10     0.00    0.00   1   90.00     0    0    0    47   0.0  1   1    3    0   0.000    0.000    0.000  1
  8   1    7  1 0 1    61  16   100   96   96     0.00000   1.43223 2.20964e-003   362   629   0.00  -0.00  -0.00   30.23   17.40  -46.22  8.000  4.000 0 1 0 2  3.000  3.000  28.00   84.10     0.00    0.00   1   90.00     0    0    0    47   0.0  1   1    3    0   0.000    0.000    0.000  1
  9   1    7  1 0 1    62  16   100   96   96     0.00000   1.43223 2.20964e-003   286   498   0.00  -0.00  -0.00   30.23   29.40  -46.22  8.000  4.000 0 1 0 2  3.000  3.000  28.00   84.10     0.00    0.00   1   90.00     0    0    0    47   0.0  1   1    3    0   0.000    0.000    0.000  1
  1   1    8  1 0 1    63  16   100   96   96     0.00000   1.43223 2.20964e-003   408   709   0.00  -0.00  -0.00   30.23  -66.60  -46.22  8.000  4.000 0 1 0 2  3.000  3.000  28.00   98.50     0.00    0.00   1   90.00     0    0    0    47   0.0  1   1    3    0   0.000    0.000    0.000  1
  2   1    8  1 0 1    64  16   100   96   96     0.00000   1.43223 2.20964e-003   399   693   0.00  -0.00  -0.00   30.23  -54.60  -46.22  8.000  4.000 0 1 0 2  3.000  3.000  28.00   98.50     0.00    0.00   1   90.00     0    0    0    47   0.0  1   1    3    0   0.000    0.000    0.000  1
  3   1    8  1 0 1    65  16   100   96   96     0.00000   1.43223 2.20964e-003   442   768   0.00  -0.00  -0.00   30.23  -42.60  -46.22  8.000  4.000 0 1 0 2  3.000  3.000  28.00   98.50     0.00    0.00   1   90.00     0    0    0    47   0.0  1   1    3    0   0.000    0.000    0.000  1
  4   1    8  1 0 1    66  16   100   96   96     0.00000   1.43223 2.20964e-003   317   551   0.00  -0.00  -0.00   30.23  -30.60  -46.22  8.000  4.000 0 1 0 2  3.000  3.000  28.00   98.50     0.00    0.00   1   90.00     0    0    0    47   0.0  1   1    3    0   0.000    0.000    0.000  1
  5   1    8  1 0 1    67  16   100   96   96     0.00000   1.43223 2.20964e-003   351   611   0.00  -0.00  -0.00   30.23  -18.60  -46.22  8.000  4.000 0 1 0 2  3.000  3.000  28.00   98.50     0.00    0.00   1   90.00     0    0    0    47   0.0  1   1    3    0   0.000    0.000    0.000  1
  6   1    8  1 0 1    68  16   100   96   96     0.00000   1.43223 2.20964e-003   432   750   0.00  -0.00  -0.00   30.23   -6.60  -46.22  8.000  4.000 0 1 0 2  3.000  3.000  28.00   98.50     0.00    0.00   1   90.00     0    0    0    47   0.0  1   1    3    0   0.000    0.000    0.000  1
  7   1    8  1 0 1    69  16   100   96   96     0.00000   1.43223 2.20964e-003   376   654   0.00  -0.00  -0.00   30.23    5.40  -46.22  8.000  4.000 0 1 0 2  3.000  3.000  28.00   98.50     0.00    0.00   1   90.00     0    0    0    47   0.0  1   1    3    0   0.000    0.000    0.000  1
  8   1    8  1 0 1    70  16   100   96   96     0.00000   1.43223 2.20964e-003   376   654   0.00  -0.00  -0.00   30.23   17.40  -46.22  8.000  4.000 0 1 0 2  3.000  3.000  28.00   98.50     0.00    0.00   1   90.00     0    0    0    47   0.0  1   1    3    0   0.000    0.000    0.000  1
  9   1    8  1 0 1    71  16   100   96   96     0.00000   1.43223 2.20964e-003   331   575   0.00  -0.00  -0.00   30.23   29.40  -46.22  8.000  4.000 0 1 0 2  3.000  3.000  28.00   98.50     0.00    0.00   1   90.00     0    0    0    47   0.0  1   1    3    0   0.000    0.000    0.000  1
  1   1    9  1 0 1    72  16   100   96   96     0.00000   1.43223 2.20964e-003   468   813   0.00  -0.00  -0.00   30.23  -66.60  -46.22  8.000  4.000 0 1 0 2  3.000  3.000  28.00  113.50     0.00    0.00   1   90.00     0    0    0    47   0.0  1   1    3    0   0.000    0.000    0.000  1
  2   1    9  1 0 1    73  16   100   96   96     0.00000   1.43223 2.20964e-003   495   860   0.00  -0.00  -0.00   30.23  -54.60  -46.22  8.000  4.000 0 1 0 2  3.000  3.000  28.00  113.50     0.00    0.00   1   90.00     0    0    0    47   0.0  1   1    3    0   0.000    0.000    0.000  1
  3   1    9  1 0 1    74  16   100   96   96     0.00000   1.43223 2.20964e-003   444   771   0.00  -0.00  -0.00   30.23  -42.60  -46.22  8.000  4.000 0 1 0 2  3.000  3.000  28.00  113.50     0.00    0.00   1   90.00     0    0    0    47   0.0  1   1    3    0   0.000    0.000    0.000  1
  4   1    9  1 0 1    75  16   100   96   96     0.00000   1.43223 2.20964e-003   460   800   0.00  -0.00  -0.00   30.23  -30.60  -46.22  8.000  4.000 0 1 0 2  3.000  3.000  28.00  113.50     0.00    0.00   1   90.00     0    0    0    47   0.0  1   1    3    0   0.000    0.000    0.000  1
  5   1    9  1 0 1    76  16   100   96   96     0.00000   1.43223 2.20964e-003   592  1030   0.00  -0.00  -0.00   30.23  -18.60  -46.22  8.000  4.000 0 1 0 2  3.000  3.000  28.00  113.50     0.00    0.00   1   90.00     0    0    0    47   0.0  1   1    3    0   0.000    0.000    0.000  1
  6   1    9  1 0 1    77  16   100   96   96     0.00000   1.43223 2.20964e-003   402   698   0.00  -0.00  -0.00   30.23   -6.60  -46.22  8.000  4.000 0 1 0 2  3.000  3.000  28.00  113.50     0.00    0.00   1   90.00     0    0    0    47   0.0  1   1    3    0   0.000    0.000    0.000  1
  7   1    9  1 0 1    78  16   100   96   96     0.00000   1.43223 2.20964e-003   331   576   0.00  -0.00  -0.00   30.23    5.40  -46.22  8.000  4.000 0 1 0 2  3.000  3.000  28.00  113.50     0.00    0.00   1   90.00     0    0    0    47   0.0  1   1    3    0   0.000    0.000    0.000  1
  8   1    9  1 0 1    79  16   100   96   96     0.00000   1.43223 2.20964e-003   430   747   0.00  -0.00  -0.00   30.23   17.40  -46.22  8.000  4.000 0 1 0 2  3.000  3.000  28.00  113.50     0.00    0.00   1   90.00     0    0    0    47   0.0  1   1    3    0   0.000    0.000    0.000  1
  9   1    9  1 0 1    80  16   100   96   96     0.00000   1.43223 2.20964e-003   367   638   0.00  -0.00  -0.00   30.23   29.40  -46.22  8.000  4.000 0 1 0 2  3.000  3.000  28.00  113.50     0.00    0.00   1   90.00     0    0    0    47   0.0  1   1    3    0   0.000    0.000    0.000  1
  1   1   10  1 0 1    81  16   100   96   96     0.00000   1.43223 2.20964e-003   420   730   0.00  -0.00  -0.00   30.23  -66.60  -46.22  8.000  4.000 0 1 0 2  3.000  3.000  28.00  128.20     0.00    0.00   1   90.00     0    0    0    47   0.0  1   1    3    0   0.000    0.000    0.000  1
  2   1   10  1 0 1    82  16   100   96   96     0.00000   1.43223 2.20964e-003   355   617   0.00  -0.00  -0.00   30.23  -54.60  -46.22  8.000  4.000 0 1 0 2  3.000  3.000  28.00  128.20     0.00    0.00   1   90.00     0    0    0    47   0.0  1   1    3    0   0.000    0.000    0.000  1
  3   1   10  1 0 1    83  16   100   96   96     0.00000   1.43223 2.20964e-003   390   677   0.00  -0.00  -0.00   30.23  -42.60  -46.22  8.000  4.000 0 1 0 2  3.000  3.000  28.00  128.20     0.00    0.00   1   90.00     0    0    0    47   0.0  1   1    3    0   0.000    0.000    0.000  1
