# === DATA DESCRIPTION FILE ======================================================
#
# CAUTION - Investigational device.
# Limited by Federal Law to investigational use.
#
# Dataset name: E:\Dicom\Alex\test_data
#
# CLINICAL TRYOUT             Research image export tool     V4.2
#
# === GENERAL INFORMATION ========================================================
#
.    Patient name                       :   image_type_mr
.    Examination name                   :   test_data
.    Protocol name                      :   T1_TI900
.    Examination date/time              :   2018.01.17 / 08:54:45
.    Series Type                        :   Image   MRSERIES
.    Acquisition nr                     :   19
.    Reconstruction nr                  :   1
.    Scan Duration [sec]                :   267
.    Max. number of cardiac phases      :   1
.    Max. number of echoes              :   1
.    Max. number of slices/locations    :   40
.    Max. number of dynamics            :   1
.    Max. number of mixes               :   1
.    Patient position                   :   Head First Supine
.    Preparation direction              :   Right-Left
.    Technique                          :   T1TFE
.    Scan resolution  (x, y)            :   320  320
.    Scan mode                          :   3D
.    Repetition time [ms]               :   7.200  
.    FOV (ap,fh,rl) [mm]                :   24.000  192.000  170.400
.    Water Fat shift [pixels]           :   4.225
.    Angulation midslice(ap,fh,rl)[degr]:   0.000  0.000  0.000
.    Off Centre midslice(ap,fh,rl) [mm] :   -10.109  -10.897  4.451
.    Flow compensation <0=no 1=yes> ?   :   0
.    Presaturation     <0=no 1=yes> ?   :   0
.    Phase encoding velocity [cm/sec]   :   0.000000  0.000000  0.000000
.    MTC               <0=no 1=yes> ?   :   0
.    SPIR              <0=no 1=yes> ?   :   0
.    EPI factor        <0,1=no EPI>     :   1
.    Dynamic scan      <0=no 1=yes> ?   :   0
.    Diffusion         <0=no 1=yes> ?   :   0
.    Diffusion echo time [ms]           :   0.0000
.    Max. number of diffusion values    :   1
.    Max. number of gradient orients    :   1
.    Number of label types   <0=no ASL> :   0
#
# === PIXEL VALUES =============================================================
#  PV = pixel value in REC file, FP = floating point value, DV = displayed value on console
#  RS = rescale slope,           RI = rescale intercept,    SS = scale slope
#  DV = PV * RS + RI             FP = DV / (RS * SS)
#
# === IMAGE INFORMATION DEFINITION =============================================
#  The rest of this file contains ONE line per image, this line contains the following information:
#
#  slice number                             (integer)
#  echo number                              (integer)
#  dynamic scan number                      (integer)
#  cardiac phase number                     (integer)
#  image_type_mr                            (integer)
#  scanning sequence                        (integer)
#  index in REC file (in images)            (integer)
#  image pixel size (in bits)               (integer)
#  scan percentage                          (integer)
#  recon resolution (x y)                   (2*integer)
#  rescale intercept                        (float)
#  rescale slope                            (float)
#  scale slope                              (float)
#  window center                            (integer)
#  window width                             (integer)
#  image angulation (ap,fh,rl in degrees )  (3*float)
#  image offcentre (ap,fh,rl in mm )        (3*float)
#  slice thickness (in mm )                 (float)
#  slice gap (in mm )                       (float)
#  image_display_orientation                (integer)
#  slice orientation ( TRA/SAG/COR )        (integer)
#  fmri_status_indication                   (integer)
#  image_type_ed_es  (end diast/end syst)   (integer)
#  pixel spacing (x,y) (in mm)              (2*float)
#  echo_time                                (float)
#  dyn_scan_begin_time                      (float)
#  trigger_time                             (float)
#  diffusion_b_factor                       (float)
#  number of averages                       (integer)
#  image_flip_angle (in degrees)            (float)
#  cardiac frequency   (bpm)                (integer)
#  minimum RR-interval (in ms)              (integer)
#  maximum RR-interval (in ms)              (integer)
#  TURBO factor  <0=no turbo>               (integer)
#  Inversion delay (in ms)                  (float)
#  diffusion b value number    (imagekey!)  (integer)
#  gradient orientation number (imagekey!)  (integer)
#  contrast type                            (string)
#  diffusion anisotropy type                (string)
#  diffusion (ap, fh, rl)                   (3*float)
#  label type (ASL)            (imagekey!)  (integer)
#
# === IMAGE INFORMATION ==========================================================
#  sl ec  dyn ph ty    idx pix scan% rec size                (re)scale              window        angulation              offcentre        thick   gap   info      spacing     echo     dtime   ttime    diff  avg  flip    freq   RR-int  turbo delay b grad cont anis         diffusion       L.ty

 21   1    1  1 1 2     0  16    78  336  336 -24277.00000  11.85690 1.10951e-003   -19  3625   0.00  -0.00  -0.00   -9.81  -10.90    4.45  0.600  0.000 0 3 0 2  0.571  0.571   3.30    0.00     0.00    0.00   2    8.00     0    0    0   240   0.0  1   1    7    0   0.000    0.000    0.000  1
 21   1    1  1 2 2     1  16    78  336  336 -24277.00000  11.85690 1.10951e-003   -56  2602   0.00  -0.00  -0.00   -9.81  -10.90    4.45  0.600  0.000 0 3 0 2  0.571  0.571   3.30    0.00     0.00    0.00   2    8.00     0    0    0   240   0.0  1   1    7    0   0.000    0.000    0.000  1
 21   1    1  1 0 2     2  16    78  336  336     0.00000  11.85665 1.10951e-003  1070  1860   0.00  -0.00  -0.00   -9.81  -10.90    4.45  0.600  0.000 0 3 0 2  0.571  0.571   3.30    0.00     0.00    0.00   2    8.00     0    0    0   240   0.0  1   1    7    0   0.000    0.000    0.000  1
 21   1    1  1 3 2     3  16    78  336  336 -3142.00000   1.53455 6.51740e+002     0  6284   0.00  -0.00  -0.00   -9.81  -10.90    4.45  0.600  0.000 0 3 0 2  0.571  0.571   3.30    0.00     0.00    0.00   2    8.00     0    0    0   240   0.0  1   1    7    0   0.000    0.000    0.000  1
 22   1    1  1 1 2     4  16    78  336  336 -24277.00000  11.85690 1.10951e-003   -34  3594   0.00  -0.00  -0.00   -9.21  -10.90    4.45  0.600  0.000 0 3 0 2  0.571  0.571   3.30    0.00     0.00    0.00   2    8.00     0    0    0   240   0.0  1   1    7    0   0.000    0.000    0.000  1
 22   1    1  1 2 2     5  16    78  336  336 -24277.00000  11.85690 1.10951e-003   -48  2565   0.00  -0.00  -0.00   -9.21  -10.90    4.45  0.600  0.000 0 3 0 2  0.571  0.571   3.30    0.00     0.00    0.00   2    8.00     0    0    0   240   0.0  1   1    7    0   0.000    0.000    0.000  1
 22   1    1  1 0 2     6  16    78  336  336     0.00000  11.85665 1.10951e-003  1070  1860   0.00  -0.00  -0.00   -9.21  -10.90    4.45  0.600  0.000 0 3 0 2  0.571  0.571   3.30    0.00     0.00    0.00   2    8.00     0    0    0   240   0.0  1   1    7    0   0.000    0.000    0.000  1
 22   1    1  1 3 2     7  16    78  336  336 -3142.00000   1.53455 6.51740e+002     0  6284   0.00  -0.00  -0.00   -9.21  -10.90    4.45  0.600  0.000 0 3 0 2  0.571  0.571   3.30    0.00     0.00    0.00   2    8.00     0    0    0   240   0.0  1   1    7    0   0.000    0.000    0.000  1
 23   1    1  1 1 2     8  16    78  336  336 -24277.00000  11.85690 1.10951e-003   -56  3461   0.00  -0.00  -0.00   -8.61  -10.90    4.45  0.600  0.000 0 3 0 2  0.571  0.571   3.30    0.00     0.00    0.00   2    8.00     0    0    0   240   0.0  1   1    7    0   0.000    0.000    0.000  1
 23   1    1  1 2 2     9  16    78  336  336 -24277.00000  11.85690 1.10951e-003   -46  2542   0.00  -0.00  -0.00   -8.61  -10.90    4.45  0.600  0.000 0 3 0 2  0.571  0.571   3.30    0.00     0.00    0.00   2    8.00     0    0    0   240   0.0  1   1    7    0   0.000    0.000    0.000  1
 23   1    1  1 0 2    10  16    78  336  336     0.00000  11.85665 1.10951e-003  1070  1860   0.00  -0.00  -0.00   -8.61  -10.90    4.45  0.600  0.000 0 3 0 2  0.571  0.571   3.30    0.00     0.00    0.00   2    8.00     0    0    0   240   0.0  1   1    7    0   0.000    0.000    0.000  1
 23   1    1  1 3 2    11  16    78  336  336 -3142.00000   1.53455 6.51740e+002     0  6284   0.00  -0.00  -0.00   -8.61  -10.90    4.45  0.600  0.000 0 3 0 2  0.571  0.571   3.30    0.00     0.00    0.00   2    8.00     0    0    0   240   0.0  1   1    7    0   0.000    0.000    0.000  1
 24   1    1  1 1 2    12  16    78  336  336 -24277.00000  11.85690 1.10951e-003   -44  3415   0.00  -0.00  -0.00   -8.01  -10.90    4.45  0.600  0.000 0 3 0 2  0.571  0.571   3.30    0.00     0.00    0.00   2    8.00     0    0    0   240   0.0  1   1    7    0   0.000    0.000    0.000  1
 24   1    1  1 2 2    13  16    78  336  336 -24277.00000  11.85690 1.10951e-003   -49  2501   0.00  -0.00  -0.00   -8.01  -10.90    4.45  0.600  0.000 0 3 0 2  0.571  0.571   3.30    0.00     0.00    0.00   2    8.00     0    0    0   240   0.0  1   1    7    0   0.000    0.000    0.000  1
 24   1    1  1 0 2    14  16    78  336  336     0.00000  11.85665 1.10951e-003  1070  1860   0.00  -0.00  -0.00   -8.01  -10.90    4.45  0.600  0.000 0 3 0 2  0.571  0.571   3.30    0.00     0.00    0.00   2    8.00     0    0    0   240   0.0  1   1    7    0   0.000    0.000    0.000  1
 24   1    1  1 3 2    15  16    78  336  336 -3142.00000   1.53455 6.51740e+002     0  6284   0.00  -0.00  -0.00   -8.01  -10.90    4.45  0.600  0.000 0 3 0 2  0.571  0.571   3.30    0.00     0.00    0.00   2    8.00     0    0    0   240   0.0  1   1    7    0   0.000    0.000    0.000  1
 25   1    1  1 1 2    16  16    78  336  336 -24277.00000  11.85690 1.10951e-003   -55  3319   0.00  -0.00  -0.00   -7.41  -10.90    4.45  0.600  0.000 0 3 0 2  0.571  0.571   3.30    0.00     0.00    0.00   2    8.00     0    0    0   240   0.0  1   1    7    0   0.000    0.000    0.000  1
 25   1    1  1 2 2    17  16    78  336  336 -24277.00000  11.85690 1.10951e-003   -35  2469   0.00  -0.00  -0.00   -7.41  -10.90    4.45  0.600  0.000 0 3 0 2  0.571  0.571   3.30    0.00     0.00    0.00   2    8.00     0    0    0   240   0.0  1   1    7    0   0.000    0.000    0.000  1
 25   1    1  1 0 2    18  16    78  336  336     0.00000  11.85665 1.10951e-003  1070  1860   0.00  -0.00  -0.00   -7.41  -10.90    4.45  0.600  0.000 0 3 0 2  0.571  0.571   3.30    0.00     0.00    0.00   2    8.00     0    0    0   240   0.0  1   1    7    0   0.000    0.000    0.000  1
 25   1    1  1 3 2    19  16    78  336  336 -3142.00000   1.53455 6.51740e+002     0  6284   0.00  -0.00  -0.00   -7.41  -10.90    4.45  0.600  0.000 0 3 0 2  0.571  0.571   3.30    0.00     0.00    0.00   2    8.00     0    0    0   240   0.0  1   1    7    0   0.000    0.000    0.000  1
 26   1    1  1 1 2    20  16    78  336  336 -24277.00000  11.85690 1.10951e-003   -72  3276   0.00  -0.00  -0.00   -6.81  -10.90    4.45  0.600  0.000 0 3 0 2  0.571  0.571   3.30    0.00     0.00    0.00   2    8.00     0    0    0   240   0.0  1   1    7    0   0.000    0.000    0.000  1
 26   1    1  1 2 2    21  16    78  336  336 -24277.00000  11.85690 1.10951e-003   -13  2448   0.00  -0.00  -0.00   -6.81  -10.90    4.45  0.600  0.000 0 3 0 2  0.571  0.571   3.30    0.00     0.00    0.00   2    8.00     0    0    0   240   0.0  1   1    7    0   0.000    0.000    0.000  1
 26   1    1  1 0 2    22  16    78  336  336     0.00000  11.85665 1.10951e-003  1070  1860   0.00  -0.00  -0.00   -6.81  -10.90    4.45  0.600  0.000 0 3 0 2  0.571  0.571   3.30    0.00     0.00    0.00   2    8.00     0    0    0   240   0.0  1   1    7    0   0.000    0.000    0.000  1
 26   1    1  1 3 2    23  16    78  336  336 -3142.00000   1.53455 6.51740e+002     0  6284   0.00  -0.00  -0.00   -6.81  -10.90    4.45  0.600  0.000 0 3 0 2  0.571  0.571   3.30    0.00     0.00    0.00   2    8.00     0    0    0   240   0.0  1   1    7    0   0.000    0.000    0.000  1
 27   1    1  1 1 2    24  16    78  336  336 -24277.00000  11.85690 1.10951e-003   -70  3298   0.00  -0.00  -0.00   -6.21  -10.90    4.45  0.600  0.000 0 3 0 2  0.571  0.571   3.30    0.00     0.00    0.00   2    8.00     0    0    0   240   0.0  1   1    7    0   0.000    0.000    0.000  1
 27   1    1  1 2 2    25  16    78  336  336 -24277.00000  11.85690 1.10951e-003   -12  2452   0.00  -0.00  -0.00   -6.21  -10.90    4.45  0.600  0.000 0 3 0 2  0.571  0.571   3.30    0.00     0.00    0.00   2    8.00     0    0    0   240   0.0  1   1    7    0   0.000    0.000    0.000  1
 27   1    1  1 0 2    26  16    78  336  336     0.00000  11.85665 1.10951e-003  1070  1860   0.00  -0.00  -0.00   -6.21  -10.90    4.45  0.600  0.000 0 3 0 2  0.571  0.571   3.30    0.00     0.00    0.00   2    8.00     0    0    0   240   0.0  1   1    7    0   0.000    0.000    0.000  1
 27   1    1  1 3 2    27  16    78  336  336 -3142.00000   1.53455 6.51740e+002     0  6284   0.00  -0.00  -0.00   -6.21  -10.90    4.45  0.600  0.000 0 3 0 2  0.571  0.571   3.30    0.00     0.00    0.00   2    8.00     0    0    0   240   0.0  1   1    7    0   0.000    0.000    0.000  1
 28   1    1  1 1 2    28  16    78  336  336 -24277.00000  11.85690 1.10951e-003   -63  3219   0.00  -0.00  -0.00   -5.61  -10.90    4.45  0.600  0.000 0 3 0 2  0.571  0.571   3.30    0.00     0.00    0.00   2    8.00     0    0    0   240   0.0  1   1    7    0   0.000    0.000    0.000  1
 28   1    1  1 2 2    29  16    78  336  336 -24277.00000  11.85690 1.10951e-003   -14  2457   0.00  -0.00  -0.00   -5.61  -10.90    4.45  0.600  0.000 0 3 0 2  0.571  0.571   3.30    0.00     0.00    0.00   2    8.00     0    0    0   240   0.0  1   1    7    0   0.000    0.000    0.000  1
 28   1    1  1 0 2    30  16    78  336  336     0.00000  11.85665 1.10951e-003  1070  1860   0.00  -0.00  -0.00   -5.61  -10.90    4.45  0.600  0.000 0 3 0 2  0.571  0.571   3.30    0.00     0.00    0.00   2    8.00     0    0    0   240   0.0  1   1    7    0   0.000    0.000    0.000  1
 28   1    1  1 3 2    31  16    78  336  336 -3142.00000   1.53455 6.51740e+002     0  6284   0.00  -0.00  -0.00   -5.61  -10.90    4.45  0.600  0.000 0 3 0 2  0.571  0.571   3.30    0.00     0.00    0.00   2    8.00     0    0    0   240   0.0  1   1    7    0   0.000    0.000    0.000  1
 29   1    1  1 1 2    32  16    78  336  336 -24277.00000  11.85690 1.10951e-003   -50  3210   0.00  -0.00  -0.00   -5.01  -10.90    4.45  0.600  0.000 0 3 0 2  0.571  0.571   3.30    0.00     0.00    0.00   2    8.00     0    0    0   240   0.0  1   1    7    0   0.000    0.000    0.000  1
 29   1    1  1 2 2    33  16    78  336  336 -24277.00000  11.85690 1.10951e-003     1  2471   0.00  -0.00  -0.00   -5.01  -10.90    4.45  0.600  0.000 0 3 0 2  0.571  0.571   3.30    0.00     0.00    0.00   2    8.00     0    0    0   240   0.0  1   1    7    0   0.000    0.000    0.000  1
 29   1    1  1 0 2    34  16    78  336  336     0.00000  11.85665 1.10951e-003  1070  1860   0.00  -0.00  -0.00   -5.01  -10.90    4.45  0.600  0.000 0 3 0 2  0.571  0.571   3.30    0.00     0.00    0.00   2    8.00     0    0    0   240   0.0  1   1    7    0   0.000    0.000    0.000  1
 29   1    1  1 3 2    35  16    78  336  336 -3142.00000   1.53455 6.51740e+002     0  6284   0.00  -0.00  -0.00   -5.01  -10.90    4.45  0.600  0.000 0 3 0 2  0.571  0.571   3.30    0.00     0.00    0.00   2    8.00     0    0    0   240   0.0  1   1    7    0   0.000    0.000    0.000  1
 30   1    1  1 1 2    36  16    78  336  336 -24277.00000  11.85690 1.10951e-003   -61  3123   0.00  -0.00  -0.00   -4.41  -10.90    4.45  0.600  0.000 0 3 0 2  0.571  0.571   3.30    0.00     0.00    0.00   2    8.00     0    0    0   240   0.0  1   1    7    0   0.000    0.000    0.000  1
 30   1    1  1 2 2    37  16    78  336  336 -24277.00000  11.85690 1.10951e-003     0  2477   0.00  -0.00  -0.00   -4.41  -10.90    4.45  0.600  0.000 0 3 0 2  0.571  0.571   3.30    0.00     0.00    0.00   2    8.00     0    0    0   240   0.0  1   1    7    0   0.000    0.000    0.000  1
 30   1    1  1 0 2    38  16    78  336  336     0.00000  11.85665 1.10951e-003  1070  1860   0.00  -0.00  -0.00   -4.41  -10.90    4.45  0.600  0.000 0 3 0 2  0.571  0.571   3.30    0.00     0.00    0.00   2    8.00     0    0    0   240   0.0  1   1    7    0   0.000    0.000    0.000  1
 30   1    1  1 3 2    39  16    78  336  336 -3142.00000   1.53455 6.51740e+002     0  6284   0.00  -0.00  -0.00   -4.41  -10.90    4.45  0.600  0.000 0 3 0 2  0.571  0.571   3.30    0.00     0.00    0.00   2    8.00     0    0    0   240   0.0  1   1    7    0   0.000    0.000    0.000  1
 31   1    1  1 1 2    40  16    78  336  336 -24277.00000  11.85690 1.10951e-003   -60  3072   0.00  -0.00  -0.00   -3.81  -10.90    4.45  0.600  0.000 0 3 0 2  0.571  0.571   3.30    0.00     0.00    0.00   2    8.00     0    0    0   240   0.0  1   1    7    0   0.000    0.000    0.000  1
 31   1    1  1 2 2    41  16    78  336  336 -24277.00000  11.85690 1.10951e-003    17  2523   0.00  -0.00  -0.00   -3.81  -10.90    4.45  0.600  0.000 0 3 0 2  0.571  0.571   3.30    0.00     0.00    0.00   2    8.00     0    0    0   240   0.0  1   1    7    0   0.000    0.000    0.000  1
 31   1    1  1 0 2    42  16    78  336  336     0.00000  11.85665 1.10951e-003  1070  1860   0.00  -0.00  -0.00   -3.81  -10.90    4.45  0.600  0.000 0 3 0 2  0.571  0.571   3.30    0.00     0.00    0.00   2    8.00     0    0    0   240   0.0  1   1    7    0   0.000    0.000    0.000  1
 31   1    1  1 3 2    43  16    78  336  336 -3142.00000   1.53455 6.51740e+002     0  6284   0.00  -0.00  -0.00   -3.81  -10.90    4.45  0.600  0.000 0 3 0 2  0.571  0.571   3.30    0.00     0.00    0.00   2    8.00     0    0    0   240   0.0  1   1    7    0   0.000    0.000    0.000  1
 32   1    1  1 1 2    44  16    78  336  336 -24277.00000  11.85690 1.10951e-003   -41  3010   0.00  -0.00  -0.00   -3.21  -10.90    4.45  0.600  0.000 0 3 0 2  0.571  0.571   3.30    0.00     0.00    0.00   2    8.00     0    0    0   240   0.0  1   1    7    0   0.000    0.000    0.000  1
 32   1    1  1 2 2    45  16    78  336  336 -24277.00000  11.85690 1.10951e-003    22  2512   0.00  -0.00  -0.00   -3.21  -10.90    4.45  0.600  0.000 0 3 0 2  0.571  0.571   3.30    0.00     0.00    0.00   2    8.00     0    0    0   240   0.0  1   1    7    0   0.000    0.000    0.000  1
 32   1    1  1 0 2    46  16    78  336  336     0.00000  11.85665 1.10951e-003  1070  1860   0.00  -0.00  -0.00   -3.21  -10.90    4.45  0.600  0.000 0 3 0 2  0.571  0.571   3.30    0.00     0.00    0.00   2    8.00     0    0    0   240   0.0  1   1    7    0   0.000    0.000    0.000  1
 32   1    1  1 3 2    47  16    78  336  336 -3142.00000   1.53455 6.51740e+002     0  6284   0.00  -0.00  -0.00   -3.21  -10.90    4.45  0.600  0.000 0 3 0 2  0.571  0.571   3.30    0.00     0.00    0.00   2    8.00     0    0    0   240   0.0  1   1    7    0   0.000    0.000    0.000  1
 33   1    1  1 1 2    48  16    78  336  336 -24277.00000  11.85690 1.10951e-003   -28  2944   0.00  -0.00  -0.00   -2.61  -10.90    4.45  0.600  0.000 0 3 0 2  0.571  0.571   3.30    0.00     0.00    0.00   2    8.00     0    0    0   240   0.0  1   1    7    0   0.000    0.000    0.000  1
 33   1    1  1 2 2    49  16    78  336  336 -24277.00000  11.85690 1.10951e-003    34  2450   0.00  -0.00  -0.00   -2.61  -10.90    4.45  0.600  0.000 0 3 0 2  0.571  0.571   3.30    0.00     0.00    0.00   2    8.00     0    0    0   240   0.0  1   1    7    0   0.000    0.000    0.000  1
 33   1    1  1 0 2    50  16    78  336  336     0.00000  11.85665 1.10951e-003  1070  1860   0.00  -0.00  -0.00   -2.61  -10.90    4.45  0.600  0.000 0 3 0 2  0.571  0.571   3.30    0.00     0.00    0.00   2    8.00     0    0    0   240   0.0  1   1    7    0   0.000    0.000    0.000  1
 33   1    1  1 3 2    51  16    78  336  336 -3142.00000   1.53455 6.51740e+002     0  6284   0.00  -0.00  -0.00   -2.61  -10.90    4.45  0.600  0.000 0 3 0 2  0.571  0.571   3.30    0.00     0.00    0.00   2    8.00     0    0    0   240   0.0  1   1    7    0   0.000    0.000    0.000  1
 34   1    1  1 1 2    52  16    78  336  336 -24277.00000  11.85690 1.10951e-003   -16  2883   0.00  -0.00  -0.00   -2.01  -10.90    4.45  0.600  0.000 0 3 0 2  0.571  0.571   3.30    0.00     0.00    0.00   2    8.00     0    0    0   240   0.0  1   1    7    0   0.000    0.000    0.000  1
 34   1    1  1 2 2    53  16    78  336  336 -24277.00000  11.85690 1.10951e-003    22  2366   0.00  -0.00  -0.00   -2.01  -10.90    4.45  0.600  0.000 0 3 0 2  0.571  0.571   3.30    0.00     0.00    0.00   2    8.00     0    0    0   240   0.0  1   1    7    0   0.000    0.000    0.000  1
 34   1    1  1 0 2    54  16    78  336  336     0.00000  11.85665 1.10951e-003  1070  1860   0.00  -0.00  -0.00   -2.01  -10.90    4.45  0.600  0.000 0 3 0 2  0.571  0.571   3.30    0.00     0.00    0.00   2    8.00     0    0    0   240   0.0  1   1    7    0   0.000    0.000    0.000  1
 34   1    1  1 3 2    55  16    78  336  336 -3142.00000   1.53455 6.51740e+002     0  6284   0.00  -0.00  -0.00   -2.01  -10.90    4.45  0.600  0.000 0 3 0 2  0.571  0.571   3.30    0.00     0.00    0.00   2    8.00     0    0    0   240   0.0  1   1    7    0   0.000    0.000    0.000  1
 35   1    1  1 1 2    56  16    78  336  336 -24277.00000  11.85690 1.10951e-003   -12  2768   0.00  -0.00  -0.00   -1.41  -10.90    4.45  0.600  0.000 0 3 0 2  0.571  0.571   3.30    0.00     0.00    0.00   2    8.00     0    0    0   240   0.0  1   1    7    0   0.000    0.000    0.000  1
 35   1    1  1 2 2    57  16    78  336  336 -24277.00000  11.85690 1.10951e-003    16  2328   0.00  -0.00  -0.00   -1.41  -10.90    4.45  0.600  0.000 0 3 0 2  0.571  0.571   3.30    0.00     0.00    0.00   2    8.00     0    0    0   240   0.0  1   1    7    0   0.000    0.000    0.000  1
 35   1    1  1 0 2    58  16    78  336  336     0.00000  11.85665 1.10951e-003  1070  1860   0.00  -0.00  -0.00   -1.41  -10.90    4.45  0.600  0.000 0 3 0 2  0.571  0.571   3.30    0.00     0.00    0.00   2    8.00     0    0    0   240   0.0  1   1    7    0   0.000    0.000    0.000  1
 35   1    1  1 3 2    59  16    78  336  336 -3142.00000   1.53455 6.51740e+002     0  6284   0.00  -0.00  -0.00   -1.41  -10.90    4.45  0.600  0.000 0 3 0 2  0.571  0.571   3.30    0.00     0.00    0.00   2    8.00     0    0    0   240   0.0  1   1    7    0   0.000    0.000    0.000  1
 36   1    1  1 1 2    60  16    78  336  336 -24277.00000  11.85690 1.10951e-003     3  2612   0.00  -0.00  -0.00   -0.81  -10.90    4.45  0.600  0.000 0 3 0 2  0.571  0.571   3.30    0.00     0.00    0.00   2    8.00     0    0    0   240   0.0  1   1    7    0   0.000    0.000    0.000  1
 36   1    1  1 2 2    61  16    78  336  336 -24277.00000  11.85690 1.10951e-003    16  2195   0.00  -0.00  -0.00   -0.81  -10.90    4.45  0.600  0.000 0 3 0 2  0.571  0.571   3.30    0.00     0.00    0.00   2    8.00     0    0    0   240   0.0  1   1    7    0   0.000    0.000    0.000  1
 36   1    1  1 0 2    62  16    78  336  336     0.00000  11.85665 1.10951e-003  1070  1860   0.00  -0.00  -0.00   -0.81  -10.90    4.45  0.600  0.000 0 3 0 2  0.571  0.571   3.30    0.00     0.00    0.00   2    8.00     0    0    0   240   0.0  1   1    7    0   0.000    0.000    0.000  1
 36   1    1  1 3 2    63  16    78  336  336 -3142.00000   1.53455 6.51740e+002     0  6284   0.00  -0.00  -0.00   -0.81  -10.90    4.45  0.600  0.000 0 3 0 2  0.571  0.571   3.30    0.00     0.00    0.00   2    8.00     0    0    0   240   0.0  1   1    7    0   0.000    0.000    0.000  1
 37   1    1  1 1 2    64  16    78  336  336 -24277.00000  11.85690 1.10951e-003     6  2422   0.00  -0.00  -0.00   -0.21  -10.90    4.45  0.600  0.000 0 3 0 2  0.571  0.571   3.30    0.00     0.00    0.00   2    8.00     0    0    0   240   0.0  1   1    7    0   0.000    0.000    0.000  1
 37   1    1  1 2 2    65  16    78  336  336 -24277.00000  11.85690 1.10951e-003    21  2034   0.00  -0.00  -0.00   -0.21  -10.90    4.45  0.600  0.000 0 3 0 2  0.571  0.571   3.30    0.00     0.00    0.00   2    8.00     0    0    0   240   0.0  1   1    7    0   0.000    0.000    0.000  1
 37   1    1  1 0 2    66  16    78  336  336     0.00000  11.85665 1.10951e-003  1070  1860   0.00  -0.00  -0.00   -0.21  -10.90    4.45  0.600  0.000 0 3 0 2  0.571  0.571   3.30    0.00     0.00    0.00   2    8.00     0    0    0   240   0.0  1   1    7    0   0.000    0.000    0.000  1
 37   1    1  1 3 2    67  16    78  336  336 -3142.00000   1.53455 6.51740e+002     0  6284   0.00  -0.00  -0.00   -0.21  -10.90    4.45  0.600  0.000 0 3 0 2  0.571  0.571   3.30    0.00     0.00    0.00   2    8.00     0    0    0   240   0.0  1   1    7    0   0.000    0.000    0.000  1
 38   1    1  1 1 2    68  16    78  336  336 -24277.00000  11.85690 1.10951e-003    -5  2143   0.00  -0.00  -0.00    0.39  -10.90    4.45  0.600  0.000 0 3 0 2  0.571  0.571   3.30    0.00     0.00    0.00   2    8.00     0    0    0   240   0.0  1   1    7    0   0.000    0.000    0.000  1
 38   1    1  1 2 2    69  16    78  336  336 -24277.00000  11.85690 1.10951e-003    -9  1809   0.00  -0.00  -0.00    0.39  -10.90    4.45  0.600  0.000 0 3 0 2  0.571  0.571   3.30    0.00     0.00    0.00   2    8.00     0    0    0   240   0.0  1   1    7    0   0.000    0.000    0.000  1
 38   1    1  1 0 2    70  16    78  336  336     0.00000  11.85665 1.10951e-003  1070  1860   0.00  -0.00  -0.00    0.39  -10.90    4.45  0.600  0.000 0 3 0 2  0.571  0.571   3.30    0.00     0.00    0.00   2    8.00     0    0    0   240   0.0  1   1    7    0   0.000    0.000    0.000  1
 38   1    1  1 3 2    71  16    78  336  336 -3142.00000   1.53455 6.51740e+002     0  6284   0.00  -0.00  -0.00    0.39  -10.90    4.45  0.600  0.000 0 3 0 2  0.571  0.571   3.30    0.00     0.00    0.00   2    8.00     0    0    0   240   0.0  1   1    7    0   0.000    0.000    0.000  1
 39   1    1  1 1 2    72  16    78  336  336 -24277.00000  11.85690 1.10951e-003   -12  1814   0.00  -0.00  -0.00    0.99  -10.90    4.45  0.600  0.000 0 3 0 2  0.571  0.571   3.30    0.00     0.00    0.00   2    8.00     0    0    0   240   0.0  1   1    7    0   0.000    0.000    0.000  1
 39   1    1  1 2 2    73  16    78  336  336 -24277.00000  11.85690 1.10951e-003   -36  1543   0.00  -0.00  -0.00    0.99  -10.90    4.45  0.600  0.000 0 3 0 2  0.571  0.571   3.30    0.00     0.00    0.00   2    8.00     0    0    0   240   0.0  1   1    7    0   0.000    0.000    0.000  1
 39   1    1  1 0 2    74  16    78  336  336     0.00000  11.85665 1.10951e-003  1070  1860   0.00  -0.00  -0.00    0.99  -10.90    4.45  0.600  0.000 0 3 0 2  0.571  0.571   3.30    0.00     0.00    0.00   2    8.00     0    0    0   240   0.0  1   1    7    0   0.000    0.000    0.000  1
 39   1    1  1 3 2    75  16    78  336  336 -3142.00000   1.53455 6.51740e+002     0  6284   0.00  -0.00  -0.00    0.99  -10.90    4.45  0.600  0.000 0 3 0 2  0.571  0.571   3.30    0.00     0.00    0.00   2    8.00     0    0    0   240   0.0  1   1    7    0   0.000    0.000    0.000  1
 40   1    1  1 1 2    76  16    78  336  336 -24277.00000  11.85690 1.10951e-003   -28  1471   0.00  -0.00  -0.00    1.59  -10.90    4.45  0.600  0.000 0 3 0 2  0.571  0.571   3.30    0.00     0.00    0.00   2    8.00     0    0    0   240   0.0  1   1    7    0   0.000    0.000    0.000  1
 40   1    1  1 2 2    77  16    78  336  336 -24277.00000  11.85690 1.10951e-003   -37  1247   0.00  -0.00  -0.00    1.59  -10.90    4.45  0.600  0.000 0 3 0 2  0.571  0.571   3.30    0.00     0.00    0.00   2    8.00     0    0    0   240   0.0  1   1    7    0   0.000    0.000    0.000  1
 40   1    1  1 0 2    78  16    78  336  336     0.00000  11.85665 1.10951e-003  1070  1860   0.00  -0.00  -0.00    1.59  -10.90    4.45  0.600  0.000 0 3 0 2  0.571  0.571   3.30    0.00     0.00    0.00   2    8.00     0    0    0   240   0.0  1   1    7    0   0.000    0.000    0.000  1
 40   1    1  1 3 2    79  16    78  336  336 -3142.00000   1.53455 6.51740e+002     0  6284   0.00  -0.00  -0.00    1.59  -10.90    4.45  0.600  0.000 0 3 0 2  0.571  0.571   3.30    0.00     0.00    0.00   2    8.00     0    0    0   240   0.0  1   1    7    0   0.000    0.000    0.000  1
  1   1    1  1 1 2    80  16    78  336  336 -24277.00000  11.85690 1.10951e-003   -15  1850   0.00  -0.00  -0.00  -21.81  -10.90    4.45  0.600  0.000 0 3 0 2  0.571  0.571   3.30    0.00     0.00    0.00   2    8.00     0    0    0   240   0.0  1   1    7    0   0.000    0.000    0.000  1
  1   1    1  1 2 2    81  16    78  336  336 -24277.00000  11.85690 1.10951e-003    96  2176   0.00  -0.00  -0.00  -21.81  -10.90    4.45  0.600  0.000 0 3 0 2  0.571  0.571   3.30    0.00     0.00    0.00   2    8.00     0    0    0   240   0.0  1   1    7    0   0.000    0.000    0.000  1
  1   1    1  1 0 2    82  16    78  336  336     0.00000  11.85665 1.10951e-003  1070  1860   0.00  -0.00  -0.00  -21.81  -10.90    4.45  0.600  0.000 0 3 0 2  0.571  0.571   3.30    0.00     0.00    0.00   2    8.00     0    0    0   240   0.0  1   1    7    0   0.000    0.000    0.000  1
  1   1    1  1 3 2    83  16    78  336  336 -3142.00000   1.53455 6.51740e+002     0  6284   0.00  -0.00  -0.00  -21.81  -10.90    4.45  0.600  0.000 0 3 0 2  0.571  0.571   3.30    0.00     0.00    0.00   2    8.00     0    0    0   240   0.0  1   1    7    0   0.000    0.000    0.000  1
