# === DATA DESCRIPTION FILE ======================================================
#
# CAUTION - Investigational device.
# Limited by Federal Law to investigational use.
#
# Dataset name: E:\Dicom\Alex\test_data
#
# CLINICAL TRYOUT             Research image export tool     V4.2
#
# === GENERAL INFORMATION ========================================================
#
.    Patient name                       :   multi_echo
.    Examination name                   :   test_data
.    Protocol name                      :   T2star_Map
.    Examination date/time              :   2018.10.09 / 12:42:25
.    Series Type                        :   Image   MRSERIES
.    Acquisition nr                     :   8
.    Reconstruction nr                  :   1
.    Scan Duration [sec]                :   19.2
.    Max. number of cardiac phases      :   1
.    Max. number of echoes              :   12
.    Max. number of slices/locations    :   9
.    Max. number of dynamics            :   1
.    Max. number of mixes               :   1
.    Patient position                   :   Feet First Supine
.    Preparation direction              :   Anterior-Posterior
.    Technique                          :   FFE
.    Scan resolution  (x, y)            :   108  108
.    Scan mode                          :   MS
.    Repetition time [ms]               :   400.000  
.    FOV (ap,fh,rl) [mm]                :   320.000  104.000  320.000
.    Water Fat shift [pixels]           :   0.175
.    Angulation midslice(ap,fh,rl)[degr]:   0.000  0.000  0.000
.    Off Centre midslice(ap,fh,rl) [mm] :   30.228  -18.600  -46.217
.    Flow compensation <0=no 1=yes> ?   :   0
.    Presaturation     <0=no 1=yes> ?   :   0
.    Phase encoding velocity [cm/sec]   :   0.000000  0.000000  0.000000
.    MTC               <0=no 1=yes> ?   :   0
.    SPIR              <0=no 1=yes> ?   :   0
.    EPI factor        <0,1=no EPI>     :   1
.    Dynamic scan      <0=no 1=yes> ?   :   0
.    Diffusion         <0=no 1=yes> ?   :   0
.    Diffusion echo time [ms]           :   0.0000
.    Max. number of diffusion values    :   1
.    Max. number of gradient orients    :   1
.    Number of label types   <0=no ASL> :   0
#
# === PIXEL VALUES =============================================================
#  PV = pixel value in REC file, FP = floating point value, DV = displayed value on console
#  RS = rescale slope,           RI = rescale intercept,    SS = scale slope
#  DV = PV * RS + RI             FP = DV / (RS * SS)
#
# === IMAGE INFORMATION DEFINITION =============================================
#  The rest of this file contains ONE line per image, this line contains the following information:
#
#  slice number                             (integer)
#  echo number                              (integer)
#  dynamic scan number                      (integer)
#  cardiac phase number                     (integer)
#  image_type_mr                            (integer)
#  scanning sequence                        (integer)
#  index in REC file (in images)            (integer)
#  image pixel size (in bits)               (integer)
#  scan percentage                          (integer)
#  recon resolution (x y)                   (2*integer)
#  rescale intercept                        (float)
#  rescale slope                            (float)
#  scale slope                              (float)
#  window center                            (integer)
#  window width                             (integer)
#  image angulation (ap,fh,rl in degrees )  (3*float)
#  image offcentre (ap,fh,rl in mm )        (3*float)
#  slice thickness (in mm )                 (float)
#  slice gap (in mm )                       (float)
#  image_display_orientation                (integer)
#  slice orientation ( TRA/SAG/COR )        (integer)
#  fmri_status_indication                   (integer)
#  image_type_ed_es  (end diast/end syst)   (integer)
#  pixel spacing (x,y) (in mm)              (2*float)
#  echo_time                                (float)
#  dyn_scan_begin_time                      (float)
#  trigger_time                             (float)
#  diffusion_b_factor                       (float)
#  number of averages                       (integer)
#  image_flip_angle (in degrees)            (float)
#  cardiac frequency   (bpm)                (integer)
#  minimum RR-interval (in ms)              (integer)
#  maximum RR-interval (in ms)              (integer)
#  TURBO factor  <0=no turbo>               (integer)
#  Inversion delay (in ms)                  (float)
#  diffusion b value number    (imagekey!)  (integer)
#  gradient orientation number (imagekey!)  (integer)
#  contrast type                            (string)
#  diffusion anisotropy type                (string)
#  diffusion (ap, fh, rl)                   (3*float)
#  label type (ASL)            (imagekey!)  (integer)
#
# === IMAGE INFORMATION ==========================================================
#  sl ec  dyn ph ty    idx pix scan% rec size                (re)scale              window        angulation              offcentre        thick   gap   info      spacing     echo     dtime   ttime    diff  avg  flip    freq   RR-int  turbo delay b grad cont anis         diffusion       L.ty

  1   1    1  1 0 2     0  16    99  320  320     0.00000   1.30501 2.88904e-002  1070  1860   0.00  -0.00  -0.00   30.23  -66.60  -46.22  8.000  4.000 0 1 0 2  1.000  1.000   2.50    0.00     0.00    0.00   1   45.00     0    0    0    12   0.0  1   1    7    0   0.000    0.000    0.000  1
  1   2    1  1 0 2     1  16    99  320  320     0.00000   1.30501 2.88904e-002   666  1158   0.00  -0.00  -0.00   30.23  -66.60  -46.22  8.000  4.000 0 1 0 2  1.000  1.000   5.00    0.00     0.00    0.00   1   45.00     0    0    0    12   0.0  1   1    7    0   0.000    0.000    0.000  1
  1   3    1  1 0 2     2  16    99  320  320     0.00000   1.30501 2.88904e-002   741  1288   0.00  -0.00  -0.00   30.23  -66.60  -46.22  8.000  4.000 0 1 0 2  1.000  1.000   7.50    0.00     0.00    0.00   1   45.00     0    0    0    12   0.0  1   1    7    0   0.000    0.000    0.000  1
  1   4    1  1 0 2     3  16    99  320  320     0.00000   1.30501 2.88904e-002   711  1235   0.00  -0.00  -0.00   30.23  -66.60  -46.22  8.000  4.000 0 1 0 2  1.000  1.000  10.00    0.00     0.00    0.00   1   45.00     0    0    0    12   0.0  1   1    7    0   0.000    0.000    0.000  1
  1   5    1  1 0 2     4  16    99  320  320     0.00000   1.30501 2.88904e-002   571   993   0.00  -0.00  -0.00   30.23  -66.60  -46.22  8.000  4.000 0 1 0 2  1.000  1.000  12.50    0.00     0.00    0.00   1   45.00     0    0    0    12   0.0  1   1    7    0   0.000    0.000    0.000  1
  1   6    1  1 0 2     5  16    99  320  320     0.00000   1.30501 2.88904e-002   550   956   0.00  -0.00  -0.00   30.23  -66.60  -46.22  8.000  4.000 0 1 0 2  1.000  1.000  15.00    0.00     0.00    0.00   1   45.00     0    0    0    12   0.0  1   1    7    0   0.000    0.000    0.000  1
  1   7    1  1 0 2     6  16    99  320  320     0.00000   1.30501 2.88904e-002   614  1068   0.00  -0.00  -0.00   30.23  -66.60  -46.22  8.000  4.000 0 1 0 2  1.000  1.000  17.50    0.00     0.00    0.00   1   45.00     0    0    0    12   0.0  1   1    7    0   0.000    0.000    0.000  1
  1   8    1  1 0 2     7  16    99  320  320     0.00000   1.30501 2.88904e-002   564   980   0.00  -0.00  -0.00   30.23  -66.60  -46.22  8.000  4.000 0 1 0 2  1.000  1.000  20.00    0.00     0.00    0.00   1   45.00     0    0    0    12   0.0  1   1    7    0   0.000    0.000    0.000  1
  1   9    1  1 0 2     8  16    99  320  320     0.00000   1.30501 2.88904e-002   536   932   0.00  -0.00  -0.00   30.23  -66.60  -46.22  8.000  4.000 0 1 0 2  1.000  1.000  22.50    0.00     0.00    0.00   1   45.00     0    0    0    12   0.0  1   1    7    0   0.000    0.000    0.000  1
  1  10    1  1 0 2     9  16    99  320  320     0.00000   1.30501 2.88904e-002   489   849   0.00  -0.00  -0.00   30.23  -66.60  -46.22  8.000  4.000 0 1 0 2  1.000  1.000  25.00    0.00     0.00    0.00   1   45.00     0    0    0    12   0.0  1   1    7    0   0.000    0.000    0.000  1
  1  11    1  1 0 2    10  16    99  320  320     0.00000   1.30501 2.88904e-002   447   776   0.00  -0.00  -0.00   30.23  -66.60  -46.22  8.000  4.000 0 1 0 2  1.000  1.000  27.50    0.00     0.00    0.00   1   45.00     0    0    0    12   0.0  1   1    7    0   0.000    0.000    0.000  1
  1  12    1  1 0 2    11  16    99  320  320     0.00000   1.30501 2.88904e-002   417   726   0.00  -0.00  -0.00   30.23  -66.60  -46.22  8.000  4.000 0 1 0 2  1.000  1.000  30.00    0.00     0.00    0.00   1   45.00     0    0    0    12   0.0  1   1   11    0   0.000    0.000    0.000  1
  1   1    1  1 -1 5    12  16    99  320  320    -2.00000   0.04933 2.02723e+001    99   202   0.00  -0.00  -0.00   30.23  -66.60  -46.22  8.000  4.000 0 1 0 2  1.000  1.000   0.00    0.00     0.00    0.00   1   45.00     0    0    0    12   0.0  1   1    7    0   0.000    0.000    0.000  1
  9   1    1  1 0 2    13  16    99  320  320     0.00000   1.30501 2.88904e-002   932  1620   0.00  -0.00  -0.00   30.23   29.40  -46.22  8.000  4.000 0 1 0 2  1.000  1.000   2.50    0.00     0.00    0.00   1   45.00     0    0    0    12   0.0  1   1    7    0   0.000    0.000    0.000  1
  9   2    1  1 0 2    14  16    99  320  320     0.00000   1.30501 2.88904e-002   626  1089   0.00  -0.00  -0.00   30.23   29.40  -46.22  8.000  4.000 0 1 0 2  1.000  1.000   5.00    0.00     0.00    0.00   1   45.00     0    0    0    12   0.0  1   1    7    0   0.000    0.000    0.000  1
  9   3    1  1 0 2    15  16    99  320  320     0.00000   1.30501 2.88904e-002   639  1111   0.00  -0.00  -0.00   30.23   29.40  -46.22  8.000  4.000 0 1 0 2  1.000  1.000   7.50    0.00     0.00    0.00   1   45.00     0    0    0    12   0.0  1   1    7    0   0.000    0.000    0.000  1
  9   4    1  1 0 2    16  16    99  320  320     0.00000   1.30501 2.88904e-002   594  1032   0.00  -0.00  -0.00   30.23   29.40  -46.22  8.000  4.000 0 1 0 2  1.000  1.000  10.00    0.00     0.00    0.00   1   45.00     0    0    0    12   0.0  1   1    7    0   0.000    0.000    0.000  1
  9   5    1  1 0 2    17  16    99  320  320     0.00000   1.30501 2.88904e-002   429   746   0.00  -0.00  -0.00   30.23   29.40  -46.22  8.000  4.000 0 1 0 2  1.000  1.000  12.50    0.00     0.00    0.00   1   45.00     0    0    0    12   0.0  1   1    7    0   0.000    0.000    0.000  1
  9   6    1  1 0 2    18  16    99  320  320     0.00000   1.30501 2.88904e-002   421   732   0.00  -0.00  -0.00   30.23   29.40  -46.22  8.000  4.000 0 1 0 2  1.000  1.000  15.00    0.00     0.00    0.00   1   45.00     0    0    0    12   0.0  1   1    7    0   0.000    0.000    0.000  1
  9   7    1  1 0 2    19  16    99  320  320     0.00000   1.30501 2.88904e-002   465   809   0.00  -0.00  -0.00   30.23   29.40  -46.22  8.000  4.000 0 1 0 2  1.000  1.000  17.50    0.00     0.00    0.00   1   45.00     0    0    0    12   0.0  1   1    7    0   0.000    0.000    0.000  1
  9   8    1  1 0 2    20  16    99  320  320     0.00000   1.30501 2.88904e-002   434   754   0.00  -0.00  -0.00   30.23   29.40  -46.22  8.000  4.000 0 1 0 2  1.000  1.000  20.00    0.00     0.00    0.00   1   45.00     0    0    0    12   0.0  1   1    7    0   0.000    0.000    0.000  1
  9   9    1  1 0 2    21  16    99  320  320     0.00000   1.30501 2.88904e-002   378   657   0.00  -0.00  -0.00   30.23   29.40  -46.22  8.000  4.000 0 1 0 2  1.000  1.000  22.50    0.00     0.00    0.00   1   45.00     0    0    0    12   0.0  1   1    7    0   0.000    0.000    0.000  1
  9  10    1  1 0 2    22  16    99  320  320     0.00000   1.30501 2.88904e-002   340   591   0.00  -0.00  -0.00   30.23   29.40  -46.22  8.000  4.000 0 1 0 2  1.000  1.000  25.00    0.00     0.00    0.00   1   45.00     0    0    0    12   0.0  1   1    7    0   0.000    0.000    0.000  1
  9  11    1  1 0 2    23  16    99  320  320     0.00000   1.30501 2.88904e-002   269   467   0.00  -0.00  -0.00   30.23   29.40  -46.22  8.000  4.000 0 1 0 2  1.000  1.000  27.50    0.00     0.00    0.00   1   45.00     0    0    0    12   0.0  1   1    7    0   0.000    0.000    0.000  1
  9  12    1  1 0 2    24  16    99  320  320     0.00000   1.30501 2.88904e-002   240   418   0.00  -0.00  -0.00   30.23   29.40  -46.22  8.000  4.000 0 1 0 2  1.000  1.000  30.00    0.00     0.00    0.00   1   45.00     0    0    0    12   0.0  1   1   11    0   0.000    0.000    0.000  1
  9   1    1  1 -1 5    25  16    99  320  320    -2.00000   0.04933 2.02723e+001    99   202   0.00  -0.00  -0.00   30.23   29.40  -46.22  8.000  4.000 0 1 0 2  1.000  1.000   0.00    0.00     0.00    0.00   1   45.00     0    0    0    12   0.0  1   1    7    0   0.000    0.000    0.000  1
  2   1    1  1 0 2    26  16    99  320  320     0.00000   1.30501 2.88904e-002  1048  1822   0.00  -0.00  -0.00   30.23  -54.60  -46.22  8.000  4.000 0 1 0 2  1.000  1.000   2.50    0.00     0.00    0.00   1   45.00     0    0    0    12   0.0  1   1    7    0   0.000    0.000    0.000  1
  2   2    1  1 0 2    27  16    99  320  320     0.00000   1.30501 2.88904e-002   655  1139   0.00  -0.00  -0.00   30.23  -54.60  -46.22  8.000  4.000 0 1 0 2  1.000  1.000   5.00    0.00     0.00    0.00   1   45.00     0    0    0    12   0.0  1   1    7    0   0.000    0.000    0.000  1
  2   3    1  1 0 2    28  16    99  320  320     0.00000   1.30501 2.88904e-002   726  1263   0.00  -0.00  -0.00   30.23  -54.60  -46.22  8.000  4.000 0 1 0 2  1.000  1.000   7.50    0.00     0.00    0.00   1   45.00     0    0    0    12   0.0  1   1    7    0   0.000    0.000    0.000  1
  2   4    1  1 0 2    29  16    99  320  320     0.00000   1.30501 2.88904e-002   700  1217   0.00  -0.00  -0.00   30.23  -54.60  -46.22  8.000  4.000 0 1 0 2  1.000  1.000  10.00    0.00     0.00    0.00   1   45.00     0    0    0    12   0.0  1   1    7    0   0.000    0.000    0.000  1
  2   5    1  1 0 2    30  16    99  320  320     0.00000   1.30501 2.88904e-002   567   986   0.00  -0.00  -0.00   30.23  -54.60  -46.22  8.000  4.000 0 1 0 2  1.000  1.000  12.50    0.00     0.00    0.00   1   45.00     0    0    0    12   0.0  1   1    7    0   0.000    0.000    0.000  1
  2   6    1  1 0 2    31  16    99  320  320     0.00000   1.30501 2.88904e-002   580  1008   0.00  -0.00  -0.00   30.23  -54.60  -46.22  8.000  4.000 0 1 0 2  1.000  1.000  15.00    0.00     0.00    0.00   1   45.00     0    0    0    12   0.0  1   1    7    0   0.000    0.000    0.000  1
  2   7    1  1 0 2    32  16    99  320  320     0.00000   1.30501 2.88904e-002   614  1068   0.00  -0.00  -0.00   30.23  -54.60  -46.22  8.000  4.000 0 1 0 2  1.000  1.000  17.50    0.00     0.00    0.00   1   45.00     0    0    0    12   0.0  1   1    7    0   0.000    0.000    0.000  1
  2   8    1  1 0 2    33  16    99  320  320     0.00000   1.30501 2.88904e-002   560   973   0.00  -0.00  -0.00   30.23  -54.60  -46.22  8.000  4.000 0 1 0 2  1.000  1.000  20.00    0.00     0.00    0.00   1   45.00     0    0    0    12   0.0  1   1    7    0   0.000    0.000    0.000  1
  2   9    1  1 0 2    34  16    99  320  320     0.00000   1.30501 2.88904e-002   518   900   0.00  -0.00  -0.00   30.23  -54.60  -46.22  8.000  4.000 0 1 0 2  1.000  1.000  22.50    0.00     0.00    0.00   1   45.00     0    0    0    12   0.0  1   1    7    0   0.000    0.000    0.000  1
  2  10    1  1 0 2    35  16    99  320  320     0.00000   1.30501 2.88904e-002   475   826   0.00  -0.00  -0.00   30.23  -54.60  -46.22  8.000  4.000 0 1 0 2  1.000  1.000  25.00    0.00     0.00    0.00   1   45.00     0    0    0    12   0.0  1   1    7    0   0.000    0.000    0.000  1
  2  11    1  1 0 2    36  16    99  320  320     0.00000   1.30501 2.88904e-002   427   742   0.00  -0.00  -0.00   30.23  -54.60  -46.22  8.000  4.000 0 1 0 2  1.000  1.000  27.50    0.00     0.00    0.00   1   45.00     0    0    0    12   0.0  1   1    7    0   0.000    0.000    0.000  1
  2  12    1  1 0 2    37  16    99  320  320     0.00000   1.30501 2.88904e-002   402   699   0.00  -0.00  -0.00   30.23  -54.60  -46.22  8.000  4.000 0 1 0 2  1.000  1.000  30.00    0.00     0.00    0.00   1   45.00     0    0    0    12   0.0  1   1   11    0   0.000    0.000    0.000  1
  2   1    1  1 -1 5    38  16    99  320  320    -2.00000   0.04933 2.02723e+001    99   202   0.00  -0.00  -0.00   30.23  -54.60  -46.22  8.000  4.000 0 1 0 2  1.000  1.000   0.00    0.00     0.00    0.00   1   45.00     0    0    0    12   0.0  1   1    7    0   0.000    0.000    0.000  1
  8   1    1  1 0 2    39  16    99  320  320     0.00000   1.30501 2.88904e-002   952  1654   0.00  -0.00  -0.00   30.23   17.40  -46.22  8.000  4.000 0 1 0 2  1.000  1.000   2.50    0.00     0.00    0.00   1   45.00     0    0    0    12   0.0  1   1    7    0   0.000    0.000    0.000  1
  8   2    1  1 0 2    40  16    99  320  320     0.00000   1.30501 2.88904e-002   614  1066   0.00  -0.00  -0.00   30.23   17.40  -46.22  8.000  4.000 0 1 0 2  1.000  1.000   5.00    0.00     0.00    0.00   1   45.00     0    0    0    12   0.0  1   1    7    0   0.000    0.000    0.000  1
  8   3    1  1 0 2    41  16    99  320  320     0.00000   1.30501 2.88904e-002   615  1068   0.00  -0.00  -0.00   30.23   17.40  -46.22  8.000  4.000 0 1 0 2  1.000  1.000   7.50    0.00     0.00    0.00   1   45.00     0    0    0    12   0.0  1   1    7    0   0.000    0.000    0.000  1
  8   4    1  1 0 2    42  16    99  320  320     0.00000   1.30501 2.88904e-002   564   980   0.00  -0.00  -0.00   30.23   17.40  -46.22  8.000  4.000 0 1 0 2  1.000  1.000  10.00    0.00     0.00    0.00   1   45.00     0    0    0    12   0.0  1   1    7    0   0.000    0.000    0.000  1
  8   5    1  1 0 2    43  16    99  320  320     0.00000   1.30501 2.88904e-002   457   794   0.00  -0.00  -0.00   30.23   17.40  -46.22  8.000  4.000 0 1 0 2  1.000  1.000  12.50    0.00     0.00    0.00   1   45.00     0    0    0    12   0.0  1   1    7    0   0.000    0.000    0.000  1
  8   6    1  1 0 2    44  16    99  320  320     0.00000   1.30501 2.88904e-002   437   759   0.00  -0.00  -0.00   30.23   17.40  -46.22  8.000  4.000 0 1 0 2  1.000  1.000  15.00    0.00     0.00    0.00   1   45.00     0    0    0    12   0.0  1   1    7    0   0.000    0.000    0.000  1
  8   7    1  1 0 2    45  16    99  320  320     0.00000   1.30501 2.88904e-002   444   772   0.00  -0.00  -0.00   30.23   17.40  -46.22  8.000  4.000 0 1 0 2  1.000  1.000  17.50    0.00     0.00    0.00   1   45.00     0    0    0    12   0.0  1   1    7    0   0.000    0.000    0.000  1
  8   8    1  1 0 2    46  16    99  320  320     0.00000   1.30501 2.88904e-002   419   729   0.00  -0.00  -0.00   30.23   17.40  -46.22  8.000  4.000 0 1 0 2  1.000  1.000  20.00    0.00     0.00    0.00   1   45.00     0    0    0    12   0.0  1   1    7    0   0.000    0.000    0.000  1
  8   9    1  1 0 2    47  16    99  320  320     0.00000   1.30501 2.88904e-002   371   645   0.00  -0.00  -0.00   30.23   17.40  -46.22  8.000  4.000 0 1 0 2  1.000  1.000  22.50    0.00     0.00    0.00   1   45.00     0    0    0    12   0.0  1   1    7    0   0.000    0.000    0.000  1
  8  10    1  1 0 2    48  16    99  320  320     0.00000   1.30501 2.88904e-002   343   596   0.00  -0.00  -0.00   30.23   17.40  -46.22  8.000  4.000 0 1 0 2  1.000  1.000  25.00    0.00     0.00    0.00   1   45.00     0    0    0    12   0.0  1   1    7    0   0.000    0.000    0.000  1
  8  11    1  1 0 2    49  16    99  320  320     0.00000   1.30501 2.88904e-002   288   501   0.00  -0.00  -0.00   30.23   17.40  -46.22  8.000  4.000 0 1 0 2  1.000  1.000  27.50    0.00     0.00    0.00   1   45.00     0    0    0    12   0.0  1   1    7    0   0.000    0.000    0.000  1
  8  12    1  1 0 2    50  16    99  320  320     0.00000   1.30501 2.88904e-002   264   459   0.00  -0.00  -0.00   30.23   17.40  -46.22  8.000  4.000 0 1 0 2  1.000  1.000  30.00    0.00     0.00    0.00   1   45.00     0    0    0    12   0.0  1   1   11    0   0.000    0.000    0.000  1
  8   1    1  1 -1 5    51  16    99  320  320    -2.00000   0.04933 2.02723e+001    99   202   0.00  -0.00  -0.00   30.23   17.40  -46.22  8.000  4.000 0 1 0 2  1.000  1.000   0.00    0.00     0.00    0.00   1   45.00     0    0    0    12   0.0  1   1    7    0   0.000    0.000    0.000  1
  3   1    1  1 0 2    52  16    99  320  320     0.00000   1.30501 2.88904e-002  1035  1800   0.00  -0.00  -0.00   30.23  -42.60  -46.22  8.000  4.000 0 1 0 2  1.000  1.000   2.50    0.00     0.00    0.00   1   45.00     0    0    0    12   0.0  1   1    7    0   0.000    0.000    0.000  1
  3   2    1  1 0 2    53  16    99  320  320     0.00000   1.30501 2.88904e-002   658  1144   0.00  -0.00  -0.00   30.23  -42.60  -46.22  8.000  4.000 0 1 0 2  1.000  1.000   5.00    0.00     0.00    0.00   1   45.00     0    0    0    12   0.0  1   1    7    0   0.000    0.000    0.000  1
  3   3    1  1 0 2    54  16    99  320  320     0.00000   1.30501 2.88904e-002   701  1219   0.00  -0.00  -0.00   30.23  -42.60  -46.22  8.000  4.000 0 1 0 2  1.000  1.000   7.50    0.00     0.00    0.00   1   45.00     0    0    0    12   0.0  1   1    7    0   0.000    0.000    0.000  1
  3   4    1  1 0 2    55  16    99  320  320     0.00000   1.30501 2.88904e-002   669  1163   0.00  -0.00  -0.00   30.23  -42.60  -46.22  8.000  4.000 0 1 0 2  1.000  1.000  10.00    0.00     0.00    0.00   1   45.00     0    0    0    12   0.0  1   1    7    0   0.000    0.000    0.000  1
  3   5    1  1 0 2    56  16    99  320  320     0.00000   1.30501 2.88904e-002   546   949   0.00  -0.00  -0.00   30.23  -42.60  -46.22  8.000  4.000 0 1 0 2  1.000  1.000  12.50    0.00     0.00    0.00   1   45.00     0    0    0    12   0.0  1   1    7    0   0.000    0.000    0.000  1
  3   6    1  1 0 2    57  16    99  320  320     0.00000   1.30501 2.88904e-002   525   913   0.00  -0.00  -0.00   30.23  -42.60  -46.22  8.000  4.000 0 1 0 2  1.000  1.000  15.00    0.00     0.00    0.00   1   45.00     0    0    0    12   0.0  1   1    7    0   0.000    0.000    0.000  1
  3   7    1  1 0 2    58  16    99  320  320     0.00000   1.30501 2.88904e-002   562   977   0.00  -0.00  -0.00   30.23  -42.60  -46.22  8.000  4.000 0 1 0 2  1.000  1.000  17.50    0.00     0.00    0.00   1   45.00     0    0    0    12   0.0  1   1    7    0   0.000    0.000    0.000  1
  3   8    1  1 0 2    59  16    99  320  320     0.00000   1.30501 2.88904e-002   521   905   0.00  -0.00  -0.00   30.23  -42.60  -46.22  8.000  4.000 0 1 0 2  1.000  1.000  20.00    0.00     0.00    0.00   1   45.00     0    0    0    12   0.0  1   1    7    0   0.000    0.000    0.000  1
  3   9    1  1 0 2    60  16    99  320  320     0.00000   1.30501 2.88904e-002   490   851   0.00  -0.00  -0.00   30.23  -42.60  -46.22  8.000  4.000 0 1 0 2  1.000  1.000  22.50    0.00     0.00    0.00   1   45.00     0    0    0    12   0.0  1   1    7    0   0.000    0.000    0.000  1
  3  10    1  1 0 2    61  16    99  320  320     0.00000   1.30501 2.88904e-002   455   791   0.00  -0.00  -0.00   30.23  -42.60  -46.22  8.000  4.000 0 1 0 2  1.000  1.000  25.00    0.00     0.00    0.00   1   45.00     0    0    0    12   0.0  1   1    7    0   0.000    0.000    0.000  1
  3  11    1  1 0 2    62  16    99  320  320     0.00000   1.30501 2.88904e-002   429   745   0.00  -0.00  -0.00   30.23  -42.60  -46.22  8.000  4.000 0 1 0 2  1.000  1.000  27.50    0.00     0.00    0.00   1   45.00     0    0    0    12   0.0  1   1    7    0   0.000    0.000    0.000  1
  3  12    1  1 0 2    63  16    99  320  320     0.00000   1.30501 2.88904e-002   403   700   0.00  -0.00  -0.00   30.23  -42.60  -46.22  8.000  4.000 0 1 0 2  1.000  1.000  30.00    0.00     0.00    0.00   1   45.00     0    0    0    12   0.0  1   1   11    0   0.000    0.000    0.000  1
  3   1    1  1 -1 5    64  16    99  320  320    -2.00000   0.04933 2.02723e+001    99   202   0.00  -0.00  -0.00   30.23  -42.60  -46.22  8.000  4.000 0 1 0 2  1.000  1.000   0.00    0.00     0.00    0.00   1   45.00     0    0    0    12   0.0  1   1    7    0   0.000    0.000    0.000  1
  7   1    1  1 0 2    65  16    99  320  320     0.00000   1.30501 2.88904e-002   971  1688   0.00  -0.00  -0.00   30.23    5.40  -46.22  8.000  4.000 0 1 0 2  1.000  1.000   2.50    0.00     0.00    0.00   1   45.00     0    0    0    12   0.0  1   1    7    0   0.000    0.000    0.000  1
  7   2    1  1 0 2    66  16    99  320  320     0.00000   1.30501 2.88904e-002   621  1080   0.00  -0.00  -0.00   30.23    5.40  -46.22  8.000  4.000 0 1 0 2  1.000  1.000   5.00    0.00     0.00    0.00   1   45.00     0    0    0    12   0.0  1   1    7    0   0.000    0.000    0.000  1
  7   3    1  1 0 2    67  16    99  320  320     0.00000   1.30501 2.88904e-002   627  1090   0.00  -0.00  -0.00   30.23    5.40  -46.22  8.000  4.000 0 1 0 2  1.000  1.000   7.50    0.00     0.00    0.00   1   45.00     0    0    0    12   0.0  1   1    7    0   0.000    0.000    0.000  1
  7   4    1  1 0 2    68  16    99  320  320     0.00000   1.30501 2.88904e-002   582  1011   0.00  -0.00  -0.00   30.23    5.40  -46.22  8.000  4.000 0 1 0 2  1.000  1.000  10.00    0.00     0.00    0.00   1   45.00     0    0    0    12   0.0  1   1    7    0   0.000    0.000    0.000  1
  7   5    1  1 0 2    69  16    99  320  320     0.00000   1.30501 2.88904e-002   540   939   0.00  -0.00  -0.00   30.23    5.40  -46.22  8.000  4.000 0 1 0 2  1.000  1.000  12.50    0.00     0.00    0.00   1   45.00     0    0    0    12   0.0  1   1    7    0   0.000    0.000    0.000  1
  7   6    1  1 0 2    70  16    99  320  320     0.00000   1.30501 2.88904e-002   483   840   0.00  -0.00  -0.00   30.23    5.40  -46.22  8.000  4.000 0 1 0 2  1.000  1.000  15.00    0.00     0.00    0.00   1   45.00     0    0    0    12   0.0  1   1    7    0   0.000    0.000    0.000  1
  7   7    1  1 0 2    71  16    99  320  320     0.00000   1.30501 2.88904e-002   471   819   0.00  -0.00  -0.00   30.23    5.40  -46.22  8.000  4.000 0 1 0 2  1.000  1.000  17.50    0.00     0.00    0.00   1   45.00     0    0    0    12   0.0  1   1    7    0   0.000    0.000    0.000  1
  7   8    1  1 0 2    72  16    99  320  320     0.00000   1.30501 2.88904e-002   438   761   0.00  -0.00  -0.00   30.23    5.40  -46.22  8.000  4.000 0 1 0 2  1.000  1.000  20.00    0.00     0.00    0.00   1   45.00     0    0    0    12   0.0  1   1    7    0   0.000    0.000    0.000  1
  7   9    1  1 0 2    73  16    99  320  320     0.00000   1.30501 2.88904e-002   403   700   0.00  -0.00  -0.00   30.23    5.40  -46.22  8.000  4.000 0 1 0 2  1.000  1.000  22.50    0.00     0.00    0.00   1   45.00     0    0    0    12   0.0  1   1    7    0   0.000    0.000    0.000  1
  7  10    1  1 0 2    74  16    99  320  320     0.00000   1.30501 2.88904e-002   379   659   0.00  -0.00  -0.00   30.23    5.40  -46.22  8.000  4.000 0 1 0 2  1.000  1.000  25.00    0.00     0.00    0.00   1   45.00     0    0    0    12   0.0  1   1    7    0   0.000    0.000    0.000  1
  7  11    1  1 0 2    75  16    99  320  320     0.00000   1.30501 2.88904e-002   354   615   0.00  -0.00  -0.00   30.23    5.40  -46.22  8.000  4.000 0 1 0 2  1.000  1.000  27.50    0.00     0.00    0.00   1   45.00     0    0    0    12   0.0  1   1    7    0   0.000    0.000    0.000  1
  7  12    1  1 0 2    76  16    99  320  320     0.00000   1.30501 2.88904e-002   323   561   0.00  -0.00  -0.00   30.23    5.40  -46.22  8.000  4.000 0 1 0 2  1.000  1.000  30.00    0.00     0.00    0.00   1   45.00     0    0    0    12   0.0  1   1   11    0   0.000    0.000    0.000  1
  7   1    1  1 -1 5    77  16    99  320  320    -2.00000   0.04933 2.02723e+001    99   202   0.00  -0.00  -0.00   30.23    5.40  -46.22  8.000  4.000 0 1 0 2  1.000  1.000   0.00    0.00     0.00    0.00   1   45.00     0    0    0    12   0.0  1   1    7    0   0.000    0.000    0.000  1
  4   1    1  1 0 2    78  16    99  320  320     0.00000   1.30501 2.88904e-002  1019  1771   0.00  -0.00  -0.00   30.23  -30.60  -46.22  8.000  4.000 0 1 0 2  1.000  1.000   2.50    0.00     0.00    0.00   1   45.00     0    0    0    12   0.0  1   1    7    0   0.000    0.000    0.000  1
  4   2    1  1 0 2    79  16    99  320  320     0.00000   1.30501 2.88904e-002   652  1134   0.00  -0.00  -0.00   30.23  -30.60  -46.22  8.000  4.000 0 1 0 2  1.000  1.000   5.00    0.00     0.00    0.00   1   45.00     0    0    0    12   0.0  1   1    7    0   0.000    0.000    0.000  1
  4   3    1  1 0 2    80  16    99  320  320     0.00000   1.30501 2.88904e-002   692  1204   0.00  -0.00  -0.00   30.23  -30.60  -46.22  8.000  4.000 0 1 0 2  1.000  1.000   7.50    0.00     0.00    0.00   1   45.00     0    0    0    12   0.0  1   1    7    0   0.000    0.000    0.000  1
  4   4    1  1 0 2    81  16    99  320  320     0.00000   1.30501 2.88904e-002   663  1153   0.00  -0.00  -0.00   30.23  -30.60  -46.22  8.000  4.000 0 1 0 2  1.000  1.000  10.00    0.00     0.00    0.00   1   45.00     0    0    0    12   0.0  1   1    7    0   0.000    0.000    0.000  1
  4   5    1  1 0 2    82  16    99  320  320     0.00000   1.30501 2.88904e-002   591  1027   0.00  -0.00  -0.00   30.23  -30.60  -46.22  8.000  4.000 0 1 0 2  1.000  1.000  12.50    0.00     0.00    0.00   1   45.00     0    0    0    12   0.0  1   1    7    0   0.000    0.000    0.000  1
  4   6    1  1 0 2    83  16    99  320  320     0.00000   1.30501 2.88904e-002   550   957   0.00  -0.00  -0.00   30.23  -30.60  -46.22  8.000  4.000 0 1 0 2  1.000  1.000  15.00    0.00     0.00    0.00   1   45.00     0    0    0    12   0.0  1   1    7    0   0.000    0.000    0.000  1
