# === DATA DESCRIPTION FILE ======================================================
#
# CAUTION - Investigational device.
# Limited by Federal Law to investigational use.
#
# Dataset name: E:\Dicom\Alex\test_data
#
# CLINICAL TRYOUT             Research image export tool     V4.2
#
# === GENERAL INFORMATION ========================================================
#
.    Patient name                       :   simple
.    Examination name                   :   test_data
.    Protocol name                      :   simple
.    Examination date/time              :   2017.11.27 / 13:29:10
.    Series Type                        :   Image   MRSeries
.    Acquisition nr                     :   3
.    Reconstruction nr                  :   1
.    Scan Duration [sec]                :   25.3
.    Max. number of cardiac phases      :   1
.    Max. number of echoes              :   1
.    Max. number of slices/locations    :   30
.    Max. number of dynamics            :   1
.    Max. number of mixes               :   1
.    Patient position                   :   Head First Supine
.    Preparation direction              :   Right-Left
.    Technique                          :   B-TFE
.    Scan resolution  (x, y)            :   200  228
.    Scan mode                          :   MS
.    Repetition time [ms]               :   2.999  
.    FOV (ap,fh,rl) [mm]                :   210.000  400.000  400.000
.    Water Fat shift [pixels]           :   0.438
.    Angulation midslice(ap,fh,rl)[degr]:   0.000  0.000  0.000
.    Off Centre midslice(ap,fh,rl) [mm] :   33.948  -455.782  0.366
.    Flow compensation <0=no 1=yes> ?   :   0
.    Presaturation     <0=no 1=yes> ?   :   0
.    Phase encoding velocity [cm/sec]   :   0.000000  0.000000  0.000000
.    MTC               <0=no 1=yes> ?   :   0
.    SPIR              <0=no 1=yes> ?   :   0
.    EPI factor        <0,1=no EPI>     :   1
.    Dynamic scan      <0=no 1=yes> ?   :   0
.    Diffusion         <0=no 1=yes> ?   :   0
.    Diffusion echo time [ms]           :   0.0000
.    Max. number of diffusion values    :   1
.    Max. number of gradient orients    :   1
.    Number of label types   <0=no ASL> :   0
#
# === PIXEL VALUES =============================================================
#  PV = pixel value in REC file, FP = floating point value, DV = displayed value on console
#  RS = rescale slope,           RI = rescale intercept,    SS = scale slope
#  DV = PV * RS + RI             FP = DV / (RS * SS)
#
# === IMAGE INFORMATION DEFINITION =============================================
#  The rest of this file contains ONE line per image, this line contains the following information:
#
#  slice number                             (integer)
#  echo number                              (integer)
#  dynamic scan number                      (integer)
#  cardiac phase number                     (integer)
#  image_type_mr                            (integer)
#  scanning sequence                        (integer)
#  index in REC file (in images)            (integer)
#  image pixel size (in bits)               (integer)
#  scan percentage                          (integer)
#  recon resolution (x y)                   (2*integer)
#  rescale intercept                        (float)
#  rescale slope                            (float)
#  scale slope                              (float)
#  window center                            (integer)
#  window width                             (integer)
#  image angulation (ap,fh,rl in degrees )  (3*float)
#  image offcentre (ap,fh,rl in mm )        (3*float)
#  slice thickness (in mm )                 (float)
#  slice gap (in mm )                       (float)
#  image_display_orientation                (integer)
#  slice orientation ( TRA/SAG/COR )        (integer)
#  fmri_status_indication                   (integer)
#  image_type_ed_es  (end diast/end syst)   (integer)
#  pixel spacing (x,y) (in mm)              (2*float)
#  echo_time                                (float)
#  dyn_scan_begin_time                      (float)
#  trigger_time                             (float)
#  diffusion_b_factor                       (float)
#  number of averages                       (integer)
#  image_flip_angle (in degrees)            (float)
#  cardiac frequency   (bpm)                (integer)
#  minimum RR-interval (in ms)              (integer)
#  maximum RR-interval (in ms)              (integer)
#  TURBO factor  <0=no turbo>               (integer)
#  Inversion delay (in ms)                  (float)
#  diffusion b value number    (imagekey!)  (integer)
#  gradient orientation number (imagekey!)  (integer)
#  contrast type                            (string)
#  diffusion anisotropy type                (string)
#  diffusion (ap, fh, rl)                   (3*float)
#  label type (ASL)            (imagekey!)  (integer)
#
# === IMAGE INFORMATION ==========================================================
#  sl ec  dyn ph ty    idx pix scan% rec size                (re)scale              window        angulation              offcentre        thick   gap   info      spacing     echo     dtime   ttime    diff  avg  flip    freq   RR-int  turbo delay b grad cont anis         diffusion       L.ty

  1   1    1  1 0 2     0  16   114  256  256     0.00000  73.34774 2.19705e-002  1070  1860   0.00  -0.00  -0.00  -67.55 -455.78    0.37  7.000  0.000 0 3 0 2  1.563  1.563   1.50    0.00     0.00    0.00   1   50.00     0    0    0   114   0.0  1   1    7    0   0.000    0.000    0.000  1
  2   1    1  1 0 2     1  16   114  256  256     0.00000  73.34774 2.19705e-002  7936 13796   0.00  -0.00  -0.00  -60.55 -455.78    0.37  7.000  0.000 0 3 0 2  1.563  1.563   1.50    0.00     0.00    0.00   1   50.00     0    0    0   114   0.0  1   1    7    0   0.000    0.000    0.000  1
  3   1    1  1 0 2     2  16   114  256  256     0.00000  73.34774 2.19705e-002 33249 57798   0.00  -0.00  -0.00  -53.55 -455.78    0.37  7.000  0.000 0 3 0 2  1.563  1.563   1.50    0.00     0.00    0.00   1   50.00     0    0    0   114   0.0  1   1    7    0   0.000    0.000    0.000  1
  4   1    1  1 0 2     3  16   114  256  256     0.00000  73.34774 2.19705e-002 28387 49345   0.00  -0.00  -0.00  -46.55 -455.78    0.37  7.000  0.000 0 3 0 2  1.563  1.563   1.50    0.00     0.00    0.00   1   50.00     0    0    0   114   0.0  1   1    7    0   0.000    0.000    0.000  1
  5   1    1  1 0 2     4  16   114  256  256     0.00000  73.34774 2.19705e-002 36053 62672   0.00  -0.00  -0.00  -39.55 -455.78    0.37  7.000  0.000 0 3 0 2  1.563  1.563   1.50    0.00     0.00    0.00   1   50.00     0    0    0   114   0.0  1   1    7    0   0.000    0.000    0.000  1
  6   1    1  1 0 2     5  16   114  256  256     0.00000  73.34774 2.19705e-002 32958 57292   0.00  -0.00  -0.00  -32.55 -455.78    0.37  7.000  0.000 0 3 0 2  1.563  1.563   1.50    0.00     0.00    0.00   1   50.00     0    0    0   114   0.0  1   1    7    0   0.000    0.000    0.000  1
  7   1    1  1 0 2     6  16   114  256  256     0.00000  73.34774 2.19705e-002 33247 57793   0.00  -0.00  -0.00  -25.55 -455.78    0.37  7.000  0.000 0 3 0 2  1.563  1.563   1.50    0.00     0.00    0.00   1   50.00     0    0    0   114   0.0  1   1    7    0   0.000    0.000    0.000  1
  8   1    1  1 0 2     7  16   114  256  256     0.00000  73.34774 2.19705e-002 41066 71386   0.00  -0.00  -0.00  -18.55 -455.78    0.37  7.000  0.000 0 3 0 2  1.563  1.563   1.50    0.00     0.00    0.00   1   50.00     0    0    0   114   0.0  1   1    7    0   0.000    0.000    0.000  1
  9   1    1  1 0 2     8  16   114  256  256     0.00000  73.34774 2.19705e-002 36935 64205   0.00  -0.00  -0.00  -11.55 -455.78    0.37  7.000  0.000 0 3 0 2  1.563  1.563   1.50    0.00     0.00    0.00   1   50.00     0    0    0   114   0.0  1   1    7    0   0.000    0.000    0.000  1
 10   1    1  1 0 2     9  16   114  256  256     0.00000  73.34774 2.19705e-002 38778 67409   0.00  -0.00  -0.00   -4.55 -455.78    0.37  7.000  0.000 0 3 0 2  1.563  1.563   1.50    0.00     0.00    0.00   1   50.00     0    0    0   114   0.0  1   1    7    0   0.000    0.000    0.000  1
 11   1    1  1 0 2    10  16   114  256  256     0.00000  73.34774 2.19705e-002 46135 80197   0.00  -0.00  -0.00    2.45 -455.78    0.37  7.000  0.000 0 3 0 2  1.563  1.563   1.50    0.00     0.00    0.00   1   50.00     0    0    0   114   0.0  1   1    7    0   0.000    0.000    0.000  1
 12   1    1  1 0 2    11  16   114  256  256     0.00000  73.34774 2.19705e-002 52834 91842   0.00  -0.00  -0.00    9.45 -455.78    0.37  7.000  0.000 0 3 0 2  1.563  1.563   1.50    0.00     0.00    0.00   1   50.00     0    0    0   114   0.0  1   1    7    0   0.000    0.000    0.000  1
 13   1    1  1 0 2    12  16   114  256  256     0.00000  73.34774 2.19705e-002 58454 101612   0.00  -0.00  -0.00   16.45 -455.78    0.37  7.000  0.000 0 3 0 2  1.563  1.563   1.50    0.00     0.00    0.00   1   50.00     0    0    0   114   0.0  1   1    7    0   0.000    0.000    0.000  1
 14   1    1  1 0 2    13  16   114  256  256     0.00000  73.34774 2.19705e-002 56798 98733   0.00  -0.00  -0.00   23.45 -455.78    0.37  7.000  0.000 0 3 0 2  1.563  1.563   1.50    0.00     0.00    0.00   1   50.00     0    0    0   114   0.0  1   1    7    0   0.000    0.000    0.000  1
 15   1    1  1 0 2    14  16   114  256  256     0.00000  73.34774 2.19705e-002 56906 98921   0.00  -0.00  -0.00   30.45 -455.78    0.37  7.000  0.000 0 3 0 2  1.563  1.563   1.50    0.00     0.00    0.00   1   50.00     0    0    0   114   0.0  1   1    7    0   0.000    0.000    0.000  1
 16   1    1  1 0 2    15  16   114  256  256     0.00000  73.34774 2.19705e-002 51551 89612   0.00  -0.00  -0.00   37.45 -455.78    0.37  7.000  0.000 0 3 0 2  1.563  1.563   1.50    0.00     0.00    0.00   1   50.00     0    0    0   114   0.0  1   1    7    0   0.000    0.000    0.000  1
 17   1    1  1 0 2    16  16   114  256  256     0.00000  73.34774 2.19705e-002 45419 78952   0.00  -0.00  -0.00   44.45 -455.78    0.37  7.000  0.000 0 3 0 2  1.563  1.563   1.50    0.00     0.00    0.00   1   50.00     0    0    0   114   0.0  1   1    7    0   0.000    0.000    0.000  1
 18   1    1  1 0 2    17  16   114  256  256     0.00000  73.34774 2.19705e-002 50387 87589   0.00  -0.00  -0.00   51.45 -455.78    0.37  7.000  0.000 0 3 0 2  1.563  1.563   1.50    0.00     0.00    0.00   1   50.00     0    0    0   114   0.0  1   1    7    0   0.000    0.000    0.000  1
 19   1    1  1 0 2    18  16   114  256  256     0.00000  73.34774 2.19705e-002 45367 78862   0.00  -0.00  -0.00   58.45 -455.78    0.37  7.000  0.000 0 3 0 2  1.563  1.563   1.50    0.00     0.00    0.00   1   50.00     0    0    0   114   0.0  1   1    7    0   0.000    0.000    0.000  1
 20   1    1  1 0 2    19  16   114  256  256     0.00000  73.34774 2.19705e-002 57272 99557   0.00  -0.00  -0.00   65.45 -455.78    0.37  7.000  0.000 0 3 0 2  1.563  1.563   1.50    0.00     0.00    0.00   1   50.00     0    0    0   114   0.0  1   1    7    0   0.000    0.000    0.000  1
 21   1    1  1 0 2    20  16   114  256  256     0.00000  73.34774 2.19705e-002 51916 90247   0.00  -0.00  -0.00   72.45 -455.78    0.37  7.000  0.000 0 3 0 2  1.563  1.563   1.50    0.00     0.00    0.00   1   50.00     0    0    0   114   0.0  1   1    7    0   0.000    0.000    0.000  1
 22   1    1  1 0 2    21  16   114  256  256     0.00000  73.34774 2.19705e-002 56623 98429   0.00  -0.00  -0.00   79.45 -455.78    0.37  7.000  0.000 0 3 0 2  1.563  1.563   1.50    0.00     0.00    0.00   1   50.00     0    0    0   114   0.0  1   1    7    0   0.000    0.000    0.000  1
 23   1    1  1 0 2    22  16   114  256  256     0.00000  73.34774 2.19705e-002 62541 108716   0.00  -0.00  -0.00   86.45 -455.78    0.37  7.000  0.000 0 3 0 2  1.563  1.563   1.50    0.00     0.00    0.00   1   50.00     0    0    0   114   0.0  1   1    7    0   0.000    0.000    0.000  1
 24   1    1  1 0 2    23  16   114  256  256     0.00000  73.34774 2.19705e-002 64732 112525   0.00  -0.00  -0.00   93.45 -455.78    0.37  7.000  0.000 0 3 0 2  1.563  1.563   1.50    0.00     0.00    0.00   1   50.00     0    0    0   114   0.0  1   1    7    0   0.000    0.000    0.000  1
 25   1    1  1 0 2    24  16   114  256  256     0.00000  73.34774 2.19705e-002 66210 115095   0.00  -0.00  -0.00  100.45 -455.78    0.37  7.000  0.000 0 3 0 2  1.563  1.563   1.50    0.00     0.00    0.00   1   50.00     0    0    0   114   0.0  1   1    7    0   0.000    0.000    0.000  1
 26   1    1  1 0 2    25  16   114  256  256     0.00000  73.34774 2.19705e-002 66093 114890   0.00  -0.00  -0.00  107.45 -455.78    0.37  7.000  0.000 0 3 0 2  1.563  1.563   1.50    0.00     0.00    0.00   1   50.00     0    0    0   114   0.0  1   1    7    0   0.000    0.000    0.000  1
 27   1    1  1 0 2    26  16   114  256  256     0.00000  73.34774 2.19705e-002 55169 95902   0.00  -0.00  -0.00  114.45 -455.78    0.37  7.000  0.000 0 3 0 2  1.563  1.563   1.50    0.00     0.00    0.00   1   50.00     0    0    0   114   0.0  1   1    7    0   0.000    0.000    0.000  1
 28   1    1  1 0 2    27  16   114  256  256     0.00000  73.34774 2.19705e-002 43824 76179   0.00  -0.00  -0.00  121.45 -455.78    0.37  7.000  0.000 0 3 0 2  1.563  1.563   1.50    0.00     0.00    0.00   1   50.00     0    0    0   114   0.0  1   1    7    0   0.000    0.000    0.000  1
 29   1    1  1 0 2    28  16   114  256  256     0.00000  73.34774 2.19705e-002 22571 39235   0.00  -0.00  -0.00  128.45 -455.78    0.37  7.000  0.000 0 3 0 2  1.563  1.563   1.50    0.00     0.00    0.00   1   50.00     0    0    0   114   0.0  1   1    7    0   0.000    0.000    0.000  1
 30   1    1  1 0 2    29  16   114  256  256     0.00000  73.34774 2.19705e-002  2032  3532   0.00  -0.00  -0.00  135.45 -455.78    0.37  7.000  0.000 0 3 0 2  1.563  1.563   1.50    0.00     0.00    0.00   1   50.00     0    0    0   114   0.0  1   1    7    0   0.000    0.000    0.000  1

# === END OF DATA DESCRIPTION FILE ===============================================
